Record Length,2.500000e+03,,   0.000000000000,   0.00000,
Sample Interval,4.000000e-02,,   0.040000000000,   0.00000,
Trigger Point,-0.000000000000e+00,,   0.080000000000,   0.00000,
,,,   0.120000000000,   0.00000,
,,,   0.160000000000,  -0.00400,
,,,   0.200000000000,   0.00000,
Source,CH1,,   0.240000000000,   0.00000,
Vertical Units,V,,   0.280000000000,   0.00000,
Vertical Scale,1.000000e-01,,   0.320000000000,  -0.00400,
Vertical Offset,0.000000e+00,,   0.360000000000,   0.00000,
Horizontal Units,s,,   0.400000000000,   0.00400,
Horizontal Scale,1.000000e+01,,   0.440000000000,   0.00400,
,,,0.720000000000,   0.00000,
,,,0.760000000000,  -0.00800,
,,,0.800000000000,   0.00000,
,,,0.840000000000,   0.00000,
,,,0.880000000000,   0.00000,
,,,0.920000000000,  -0.00800,
,,,0.960000000000,   0.00400,
,,,1.000000000000,   0.00000,
,,,1.040000000000,   0.00400,
,,,1.080000000000,   0.00400,
,,,1.120000000000,  -0.00400,
,,,1.160000000000,   0.00000,
,,,1.200000000000,   0.00000,
,,,1.240000000000,   0.00400,
,,,1.280000000000,   0.00400,
,,,1.320000000000,  -0.00400,
,,,1.360000000000,   0.00400,
,,,1.400000000000,   0.00000,
,,,1.440000000000,   0.00000,
,,,1.480000000000,  -0.00800,
,,,1.520000000000,   0.00800,
,,,1.560000000000,   0.00000,
,,,1.600000000000,  -0.00400,
,,,1.640000000000,  -0.00400,
,,,1.680000000000,   0.12800,
,,,1.720000000000,   0.18000,
,,,1.760000000000,   0.08000,
,,,1.800000000000,   0.08400,
,,,1.840000000000,   0.06800,
,,,1.880000000000,   0.09200,
,,,1.920000000000,   0.08400,
,,,1.960000000000,   0.06400,
,,,2.000000000000,   0.06400,
,,,2.040000000000,   0.08000,
,,,2.080000000000,   0.08000,
,,,2.120000000000,   0.05600,
,,,2.160000000000,   0.06800,
,,,2.200000000000,   0.08400,
,,,2.240000000000,   0.08000,
,,,2.280000000000,   0.05200,
,,,2.320000000000,   0.06400,
,,,2.360000000000,   0.08800,
,,,2.400000000000,   0.08400,
,,,2.440000000000,   0.06000,
,,,2.480000000000,   0.15600,
,,,2.520000000000,   0.15200,
,,,2.560000000000,   0.14000,
,,,2.600000000000,   0.12800,
,,,2.640000000000,   0.14400,
,,,2.680000000000,   0.14800,
,,,2.720000000000,   0.13600,
,,,2.760000000000,   0.11600,
,,,2.800000000000,   0.15200,
,,,2.840000000000,   0.15600,
,,,2.880000000000,   0.12800,
,,,2.920000000000,   0.13200,
,,,2.960000000000,   0.15600,
,,,3.000000000000,   0.15200,
,,,3.040000000000,   0.12400,
,,,3.080000000000,   0.12800,
,,,3.120000000000,   0.14800,
,,,3.160000000000,   0.15200,
,,,3.200000000000,   0.13600,
,,,3.240000000000,   0.15200,
,,,3.280000000000,   0.15200,
,,,3.320000000000,   0.12800,
,,,3.360000000000,   0.12400,
,,,3.400000000000,   0.14400,
,,,3.440000000000,   0.15200,
,,,3.480000000000,   0.13200,
,,,3.520000000000,   0.13600,
,,,3.560000000000,   0.13200,
,,,3.600000000000,   0.15200,
,,,3.640000000000,   0.13600,
,,,3.680000000000,   0.12400,
,,,3.720000000000,   0.16000,
,,,3.760000000000,   0.16000,
,,,3.800000000000,   0.13200,
,,,3.840000000000,   0.15200,
,,,3.880000000000,   0.15200,
,,,3.920000000000,   0.13600,
,,,3.960000000000,   0.12400,
,,,4.000000000000,   0.15200,
,,,4.040000000000,   0.15600,
,,,4.080000000000,   0.12800,
,,,4.120000000000,   0.13200,
,,,4.160000000000,   0.15600,
,,,4.200000000000,   0.14800,
,,,4.240000000000,   0.12800,
,,,4.280000000000,   0.12800,
,,,4.320000000000,   0.14800,
,,,4.360000000000,   0.14800,
,,,4.400000000000,   0.12000,
,,,4.440000000000,   0.13600,
,,,4.480000000000,   0.14400,
,,,4.520000000000,   0.15200,
,,,4.560000000000,   0.12400,
,,,4.600000000000,   0.15200,
,,,4.640000000000,   0.14800,
,,,4.680000000000,   0.13200,
,,,4.720000000000,   0.12400,
,,,4.760000000000,   0.15600,
,,,4.800000000000,   0.14400,
,,,4.840000000000,   0.13200,
,,,4.880000000000,   0.12400,
,,,4.920000000000,   0.15600,
,,,4.960000000000,   0.14000,
,,,5.000000000000,   0.12800,
,,,5.040000000000,   0.13200,
,,,5.080000000000,   0.14800,
,,,5.120000000000,   0.14800,
,,,5.160000000000,   0.11600,
,,,5.200000000000,   0.14400,
,,,5.240000000000,   0.14800,
,,,5.280000000000,   0.15600,
,,,5.320000000000,   0.12800,
,,,5.360000000000,   0.15600,
,,,5.400000000000,   0.15200,
,,,5.440000000000,   0.12400,
,,,5.480000000000,   0.13600,
,,,5.520000000000,   0.15200,
,,,5.560000000000,   0.16800,
,,,5.600000000000,   0.12400,
,,,5.640000000000,   0.13200,
,,,5.680000000000,   0.15200,
,,,5.720000000000,   0.16400,
,,,5.760000000000,   0.13200,
,,,5.800000000000,   0.12400,
,,,5.840000000000,   0.14800,
,,,5.880000000000,   0.14800,
,,,5.920000000000,   0.12400,
,,,5.960000000000,   0.17200,
,,,6.000000000000,   0.15200,
,,,6.040000000000,   0.13200,
,,,6.080000000000,   0.12800,
,,,6.120000000000,   0.15600,
,,,6.160000000000,   0.15200,
,,,6.200000000000,   0.13200,
,,,6.240000000000,   0.12800,
,,,6.280000000000,   0.15600,
,,,6.320000000000,   0.15600,
,,,6.360000000000,   0.12400,
,,,6.400000000000,   0.13200,
,,,6.440000000000,   0.16400,
,,,6.480000000000,   0.15200,
,,,6.520000000000,   0.11600,
,,,6.560000000000,   0.13200,
,,,6.600000000000,   0.14800,
,,,6.640000000000,   0.15200,
,,,6.680000000000,   0.12800,
,,,6.720000000000,   0.14400,
,,,6.760000000000,   0.16800,
,,,6.800000000000,   0.12000,
,,,6.840000000000,   0.12400,
,,,6.880000000000,   0.15200,
,,,6.920000000000,   0.15200,
,,,6.960000000000,   0.13600,
,,,7.000000000000,   0.13200,
,,,7.040000000000,   0.14400,
,,,7.080000000000,   0.15200,
,,,7.120000000000,   0.12800,
,,,7.160000000000,   0.12800,
,,,7.200000000000,   0.15600,
,,,7.240000000000,   0.14400,
,,,7.280000000000,   0.12400,
,,,7.320000000000,   0.16800,
,,,7.360000000000,   0.16000,
,,,7.400000000000,   0.12800,
,,,7.440000000000,   0.12400,
,,,7.480000000000,   0.16000,
,,,7.520000000000,   0.15200,
,,,7.560000000000,   0.13200,
,,,7.600000000000,   0.12800,
,,,7.640000000000,   0.15600,
,,,7.680000000000,   0.15600,
,,,7.720000000000,   0.12400,
,,,7.760000000000,   0.12000,
,,,7.800000000000,   0.15200,
,,,7.840000000000,   0.16000,
,,,7.880000000000,   0.12800,
,,,7.920000000000,   0.13600,
,,,7.960000000000,   0.15600,
,,,8.000000000000,   0.14800,
,,,8.040000000000,   0.12800,
,,,8.080000000000,   0.15200,
,,,8.120000000000,   0.15200,
,,,8.160000000000,   0.12800,
,,,8.200000000000,   0.12400,
,,,8.240000000000,   0.15200,
,,,8.280000000000,   0.15600,
,,,8.320000000000,   0.12400,
,,,8.360000000000,   0.12800,
,,,8.400000000000,   0.15200,
,,,8.440000000000,   0.13600,
,,,8.480000000000,   0.12800,
,,,8.520000000000,   0.12400,
,,,8.560000000000,   0.15200,
,,,8.600000000000,   0.15200,
,,,8.640000000000,   0.13200,
,,,8.680000000000,   0.17200,
,,,8.720000000000,   0.14400,
,,,8.760000000000,   0.13200,
,,,8.800000000000,   0.12800,
,,,8.840000000000,   0.15600,
,,,8.880000000000,   0.14800,
,,,8.920000000000,   0.13200,
,,,8.960000000000,   0.13200,
,,,9.000000000000,   0.16000,
,,,9.040000000000,   0.16000,
,,,9.080000000000,   0.12800,
,,,9.120000000000,   0.12800,
,,,9.160000000000,   0.16000,
,,,9.200000000000,   0.15600,
,,,9.240000000000,   0.12000,
,,,9.280000000000,   0.12800,
,,,9.320000000000,   0.15600,
,,,9.360000000000,   0.15600,
,,,9.400000000000,   0.12800,
,,,9.440000000000,   0.14800,
,,,9.480000000000,   0.15600,
,,,9.520000000000,   0.12800,
,,,9.560000000000,   0.13200,
,,,9.600000000000,   0.15200,
,,,9.640000000000,   0.15600,
,,,9.680000000000,   0.12800,
,,,9.720000000000,   0.13200,
,,,9.760000000000,   0.15200,
,,,9.800000000000,   0.15200,
,,,9.840000000000,   0.12800,
,,,9.880000000000,   0.12400,
,,,9.920000000000,   0.15200,
,,,9.960000000000,   0.14800,
,,,10.000000000000,   0.12800,
,,,10.040000000000,   0.16400,
,,,10.080000000000,   0.15600,
,,,10.120000000000,   0.12800,
,,,10.160000000000,   0.12000,
,,,10.200000000000,   0.15200,
,,,10.240000000000,   0.15200,
,,,10.280000000000,   0.12800,
,,,10.320000000000,   0.13600,
,,,10.360000000000,   0.15600,
,,,10.400000000000,   0.15600,
,,,10.440000000000,   0.13200,
,,,10.480000000000,   0.12400,
,,,10.520000000000,   0.16000,
,,,10.560000000000,   0.14800,
,,,10.600000000000,   0.12000,
,,,10.640000000000,   0.13600,
,,,10.680000000000,   0.14800,
,,,10.720000000000,   0.14400,
,,,10.760000000000,   0.12800,
,,,10.800000000000,   0.14400,
,,,10.840000000000,   0.16000,
,,,10.880000000000,   0.13200,
,,,10.920000000000,   0.13200,
,,,10.960000000000,   0.16000,
,,,11.000000000000,   0.15600,
,,,11.040000000000,   0.12400,
,,,11.080000000000,   0.13200,
,,,11.120000000000,   0.15200,
,,,11.160000000000,   0.15600,
,,,11.200000000000,   0.12800,
,,,11.240000000000,   0.13600,
,,,11.280000000000,   0.15200,
,,,11.320000000000,   0.14400,
,,,11.360000000000,   0.13600,
,,,11.400000000000,   0.15200,
,,,11.440000000000,   0.14400,
,,,11.480000000000,   0.14000,
,,,11.520000000000,   0.12800,
,,,11.560000000000,   0.16000,
,,,11.600000000000,   0.15600,
,,,11.640000000000,   0.12800,
,,,11.680000000000,   0.12800,
,,,11.720000000000,   0.15200,
,,,11.760000000000,   0.15200,
,,,11.800000000000,   0.12000,
,,,11.840000000000,   0.12400,
,,,11.880000000000,   0.15200,
,,,11.920000000000,   0.14400,
,,,11.960000000000,   0.13600,
,,,12.000000000000,   0.12800,
,,,12.040000000000,   0.14000,
,,,12.080000000000,   0.15600,
,,,12.120000000000,   0.13600,
,,,12.160000000000,   0.20800,
,,,12.200000000000,   0.16000,
,,,12.240000000000,   0.12800,
,,,12.280000000000,   0.13600,
,,,12.320000000000,   0.14800,
,,,12.360000000000,   0.16000,
,,,12.400000000000,   0.12800,
,,,12.440000000000,   0.12800,
,,,12.480000000000,   0.15600,
,,,12.520000000000,   0.14800,
,,,12.560000000000,   0.12400,
,,,12.600000000000,   0.13600,
,,,12.640000000000,   0.15600,
,,,12.680000000000,   0.15200,
,,,12.720000000000,   0.12000,
,,,12.760000000000,   0.14800,
,,,12.800000000000,   0.15200,
,,,12.840000000000,   0.15600,
,,,12.880000000000,   0.12000,
,,,12.920000000000,   0.15600,
,,,12.960000000000,   0.15200,
,,,13.000000000000,   0.12400,
,,,13.040000000000,   0.12400,
,,,13.080000000000,   0.15600,
,,,13.120000000000,   0.14800,
,,,13.160000000000,   0.11600,
,,,13.200000000000,   0.12000,
,,,13.240000000000,   0.16000,
,,,13.280000000000,   0.16000,
,,,13.320000000000,   0.12400,
,,,13.360000000000,   0.13200,
,,,13.400000000000,   0.14800,
,,,13.440000000000,   0.15600,
,,,13.480000000000,   0.12400,
,,,13.520000000000,   0.15200,
,,,13.560000000000,   0.15200,
,,,13.600000000000,   0.12800,
,,,13.640000000000,   0.14000,
,,,13.680000000000,   0.14400,
,,,13.720000000000,   0.15200,
,,,13.760000000000,   0.13200,
,,,13.800000000000,   0.13200,
,,,13.840000000000,   0.14800,
,,,13.880000000000,   0.14400,
,,,13.920000000000,   0.13200,
,,,13.960000000000,   0.12400,
,,,14.000000000000,   0.14800,
,,,14.040000000000,   0.14800,
,,,14.080000000000,   0.12800,
,,,14.120000000000,   0.11600,
,,,14.160000000000,   0.14800,
,,,14.200000000000,   0.15600,
,,,14.240000000000,   0.12400,
,,,14.280000000000,   0.15200,
,,,14.320000000000,   0.14800,
,,,14.360000000000,   0.13200,
,,,14.400000000000,   0.13200,
,,,14.440000000000,   0.15200,
,,,14.480000000000,   0.15200,
,,,14.520000000000,   0.12800,
,,,14.560000000000,   0.13600,
,,,14.600000000000,   0.15200,
,,,14.640000000000,   0.15200,
,,,14.680000000000,   0.12800,
,,,14.720000000000,   0.13200,
,,,14.760000000000,   0.15200,
,,,14.800000000000,   0.16400,
,,,14.840000000000,   0.13600,
,,,14.880000000000,   0.14400,
,,,14.920000000000,   0.15200,
,,,14.960000000000,   0.15600,
,,,15.000000000000,   0.12400,
,,,15.040000000000,   0.15600,
,,,15.080000000000,   0.16000,
,,,15.120000000000,   0.12000,
,,,15.160000000000,   0.12400,
,,,15.200000000000,   0.14400,
,,,15.240000000000,   0.15200,
,,,15.280000000000,   0.12800,
,,,15.320000000000,   0.12400,
,,,15.360000000000,   0.14800,
,,,15.400000000000,   0.15200,
,,,15.440000000000,   0.12000,
,,,15.480000000000,   0.12800,
,,,15.520000000000,   0.15200,
,,,15.560000000000,   0.15200,
,,,15.600000000000,   0.12800,
,,,15.640000000000,   0.16000,
,,,15.680000000000,   0.13600,
,,,15.720000000000,   0.12800,
,,,15.760000000000,   0.12800,
,,,15.800000000000,   0.13600,
,,,15.840000000000,   0.15600,
,,,15.880000000000,   0.13200,
,,,15.920000000000,   0.13200,
,,,15.960000000000,   0.14400,
,,,16.000000000000,   0.15200,
,,,16.040000000000,   0.12400,
,,,16.080000000000,   0.12400,
,,,16.120000000000,   0.16000,
,,,16.160000000000,   0.15200,
,,,16.200000000000,   0.11600,
,,,16.240000000000,   0.14000,
,,,16.280000000000,   0.15600,
,,,16.320000000000,   0.14800,
,,,16.360000000000,   0.13200,
,,,16.400000000000,   0.14400,
,,,16.440000000000,   0.14800,
,,,16.480000000000,   0.12400,
,,,16.520000000000,   0.12800,
,,,16.560000000000,   0.15600,
,,,16.600000000000,   0.15600,
,,,16.640000000000,   0.12000,
,,,16.680000000000,   0.13200,
,,,16.720000000000,   0.15600,
,,,16.760000000000,   0.15200,
,,,16.800000000000,   0.13600,
,,,16.840000000000,   0.12800,
,,,16.880000000000,   0.15200,
,,,16.920000000000,   0.15200,
,,,16.960000000000,   0.12800,
,,,17.000000000000,   0.15600,
,,,17.040000000000,   0.15200,
,,,17.080000000000,   0.12400,
,,,17.120000000000,   0.12400,
,,,17.160000000000,   0.15200,
,,,17.200000000000,   0.14800,
,,,17.240000000000,   0.12800,
,,,17.280000000000,   0.12800,
,,,17.320000000000,   0.14400,
,,,17.360000000000,   0.15600,
,,,17.400000000000,   0.13600,
,,,17.440000000000,   0.12400,
,,,17.480000000000,   0.16000,
,,,17.520000000000,   0.16000,
,,,17.560000000000,   0.13200,
,,,17.600000000000,   0.13200,
,,,17.640000000000,   0.22400,
,,,17.680000000000,   0.14800,
,,,17.720000000000,   0.12800,
,,,17.760000000000,   0.18000,
,,,17.800000000000,   0.14800,
,,,17.840000000000,   0.12800,
,,,17.880000000000,   0.12800,
,,,17.920000000000,   0.15200,
,,,17.960000000000,   0.23600,
,,,18.000000000000,   0.13600,
,,,18.040000000000,   0.12000,
,,,18.080000000000,   0.15200,
,,,18.120000000000,   0.13600,
,,,18.160000000000,   0.13200,
,,,18.200000000000,   0.11600,
,,,18.240000000000,   0.14800,
,,,18.280000000000,   0.15600,
,,,18.320000000000,   0.12400,
,,,18.360000000000,   0.14400,
,,,18.400000000000,   0.15600,
,,,18.440000000000,   0.16000,
,,,18.480000000000,   0.13600,
,,,18.520000000000,   0.14400,
,,,18.560000000000,   0.16000,
,,,18.600000000000,   0.13600,
,,,18.640000000000,   0.12800,
,,,18.680000000000,   0.14800,
,,,18.720000000000,   0.15200,
,,,18.760000000000,   0.14000,
,,,18.800000000000,   0.25600,
,,,18.840000000000,   0.15200,
,,,18.880000000000,   0.14800,
,,,18.920000000000,   0.13200,
,,,18.960000000000,   0.13200,
,,,19.000000000000,   0.15600,
,,,19.040000000000,   0.15200,
,,,19.080000000000,   0.14000,
,,,19.120000000000,   0.15200,
,,,19.160000000000,   0.15600,
,,,19.200000000000,   0.12400,
,,,19.240000000000,   0.12400,
,,,19.280000000000,   0.16000,
,,,19.320000000000,   0.16000,
,,,19.360000000000,   0.12400,
,,,19.400000000000,   0.12800,
,,,19.440000000000,   0.13600,
,,,19.480000000000,   0.14400,
,,,19.520000000000,   0.13200,
,,,19.560000000000,   0.12800,
,,,19.600000000000,   0.15200,
,,,19.640000000000,   0.15200,
,,,19.680000000000,   0.13600,
,,,19.720000000000,   0.13200,
,,,19.760000000000,   0.14400,
,,,19.800000000000,   0.15200,
,,,19.840000000000,   0.15200,
,,,19.880000000000,   0.15200,
,,,19.920000000000,   0.15600,
,,,19.960000000000,   0.12400,
,,,20.000000000000,   0.14000,
,,,20.040000000000,   0.24800,
,,,20.080000000000,   0.15200,
,,,20.120000000000,   0.13600,
,,,20.160000000000,   0.12800,
,,,20.200000000000,   0.16000,
,,,20.240000000000,   0.15600,
,,,20.280000000000,   0.12800,
,,,20.320000000000,   0.13200,
,,,20.360000000000,   0.18400,
,,,20.400000000000,   0.16000,
,,,20.440000000000,   0.14000,
,,,20.480000000000,   0.15600,
,,,20.520000000000,   0.15600,
,,,20.560000000000,   0.13200,
,,,20.600000000000,   0.13600,
,,,20.640000000000,   0.16000,
,,,20.680000000000,   0.15600,
,,,20.720000000000,   0.13200,
,,,20.760000000000,   0.13200,
,,,20.800000000000,   0.15600,
,,,20.840000000000,   0.14000,
,,,20.880000000000,   0.12400,
,,,20.920000000000,   0.13200,
,,,20.960000000000,   0.16000,
,,,21.000000000000,   0.15600,
,,,21.040000000000,   0.13600,
,,,21.080000000000,   0.13200,
,,,21.120000000000,   0.15600,
,,,21.160000000000,   0.16400,
,,,21.200000000000,   0.12800,
,,,21.240000000000,   0.18800,
,,,21.280000000000,   0.14000,
,,,21.320000000000,   0.13200,
,,,21.360000000000,   0.12800,
,,,21.400000000000,   0.14000,
,,,21.440000000000,   0.14000,
,,,21.480000000000,   0.12000,
,,,21.520000000000,   0.23200,
,,,21.560000000000,   0.16400,
,,,21.600000000000,   0.16000,
,,,21.640000000000,   0.12800,
,,,21.680000000000,   0.12800,
,,,21.720000000000,   0.14800,
,,,21.760000000000,   0.16400,
,,,21.800000000000,   0.13600,
,,,21.840000000000,   0.13600,
,,,21.880000000000,   0.14800,
,,,21.920000000000,   0.15600,
,,,21.960000000000,   0.13200,
,,,22.000000000000,   0.16000,
,,,22.040000000000,   0.19600,
,,,22.080000000000,   0.13200,
,,,22.120000000000,   0.13200,
,,,22.160000000000,   0.13200,
,,,22.200000000000,   0.14800,
,,,22.240000000000,   0.13200,
,,,22.280000000000,   0.12800,
,,,22.320000000000,   0.14800,
,,,22.360000000000,   0.16000,
,,,22.400000000000,   0.12000,
,,,22.440000000000,   0.11600,
,,,22.480000000000,   0.16000,
,,,22.520000000000,   0.15200,
,,,22.560000000000,   0.13200,
,,,22.600000000000,   0.16000,
,,,22.640000000000,   0.16000,
,,,22.680000000000,   0.13200,
,,,22.720000000000,   0.14400,
,,,22.760000000000,   0.15200,
,,,22.800000000000,   0.16400,
,,,22.840000000000,   0.12400,
,,,22.880000000000,   0.14400,
,,,22.920000000000,   0.15600,
,,,22.960000000000,   0.14800,
,,,23.000000000000,   0.12000,
,,,23.040000000000,   0.13600,
,,,23.080000000000,   0.15600,
,,,23.120000000000,   0.17200,
,,,23.160000000000,   0.13200,
,,,23.200000000000,   0.12800,
,,,23.240000000000,   0.16000,
,,,23.280000000000,   0.15600,
,,,23.320000000000,   0.12400,
,,,23.360000000000,   0.16000,
,,,23.400000000000,   0.14400,
,,,23.440000000000,   0.12800,
,,,23.480000000000,   0.13600,
,,,23.520000000000,   0.16000,
,,,23.560000000000,   0.15200,
,,,23.600000000000,   0.12400,
,,,23.640000000000,   0.12800,
,,,23.680000000000,   0.14800,
,,,23.720000000000,   0.15600,
,,,23.760000000000,   0.12800,
,,,23.800000000000,   0.11200,
,,,23.840000000000,   0.16000,
,,,23.880000000000,   0.16000,
,,,23.920000000000,   0.12800,
,,,23.960000000000,   0.15600,
,,,24.000000000000,   0.15600,
,,,24.040000000000,   0.12400,
,,,24.080000000000,   0.13600,
,,,24.120000000000,   0.16000,
,,,24.160000000000,   0.15200,
,,,24.200000000000,   0.13200,
,,,24.240000000000,   0.13200,
,,,24.280000000000,   0.15200,
,,,24.320000000000,   0.14800,
,,,24.360000000000,   0.16400,
,,,24.400000000000,   0.12400,
,,,24.440000000000,   0.15600,
,,,24.480000000000,   0.15600,
,,,24.520000000000,   0.12400,
,,,24.560000000000,   0.13600,
,,,24.600000000000,   0.16000,
,,,24.640000000000,   0.15200,
,,,24.680000000000,   0.18400,
,,,24.720000000000,   0.15200,
,,,24.760000000000,   0.16000,
,,,24.800000000000,   0.12400,
,,,24.840000000000,   0.12400,
,,,24.880000000000,   0.14800,
,,,24.920000000000,   0.15600,
,,,24.960000000000,   0.13200,
,,,25.000000000000,   0.12800,
,,,25.040000000000,   0.16400,
,,,25.080000000000,   0.15600,
,,,25.120000000000,   0.12800,
,,,25.160000000000,   0.13600,
,,,25.200000000000,   0.15600,
,,,25.240000000000,   0.15200,
,,,25.280000000000,   0.13600,
,,,25.320000000000,   0.11200,
,,,25.360000000000,   0.15600,
,,,25.400000000000,   0.14400,
,,,25.440000000000,   0.13200,
,,,25.480000000000,   0.15200,
,,,25.520000000000,   0.27200,
,,,25.560000000000,   0.13200,
,,,25.600000000000,   0.12000,
,,,25.640000000000,   0.14400,
,,,25.680000000000,   0.15200,
,,,25.720000000000,   0.15600,
,,,25.760000000000,   0.13600,
,,,25.800000000000,   0.15600,
,,,25.840000000000,   0.14800,
,,,25.880000000000,   0.13200,
,,,25.920000000000,   0.12800,
,,,25.960000000000,   0.14800,
,,,26.000000000000,   0.15200,
,,,26.040000000000,   0.18000,
,,,26.080000000000,   0.15600,
,,,26.120000000000,   0.15200,
,,,26.160000000000,   0.13600,
,,,26.200000000000,   0.13600,
,,,26.240000000000,   0.16000,
,,,26.280000000000,   0.14400,
,,,26.320000000000,   0.13200,
,,,26.360000000000,   0.12000,
,,,26.400000000000,   0.15200,
,,,26.440000000000,   0.16000,
,,,26.480000000000,   0.12400,
,,,26.520000000000,   0.12000,
,,,26.560000000000,   0.21600,
,,,26.600000000000,   0.16000,
,,,26.640000000000,   0.13600,
,,,26.680000000000,   0.12000,
,,,26.720000000000,   0.15600,
,,,26.760000000000,   0.15200,
,,,26.800000000000,   0.13200,
,,,26.840000000000,   0.16800,
,,,26.880000000000,   0.22000,
,,,26.920000000000,   0.12800,
,,,26.960000000000,   0.12800,
,,,27.000000000000,   0.15600,
,,,27.040000000000,   0.15600,
,,,27.080000000000,   0.26000,
,,,27.120000000000,   0.12800,
,,,27.160000000000,   0.15200,
,,,27.200000000000,   0.14800,
,,,27.240000000000,   0.11600,
,,,27.280000000000,   0.13600,
,,,27.320000000000,   0.14800,
,,,27.360000000000,   0.15600,
,,,27.400000000000,   0.24000,
,,,27.440000000000,   0.11600,
,,,27.480000000000,   0.14800,
,,,27.520000000000,   0.14800,
,,,27.560000000000,   0.12400,
,,,27.600000000000,   0.13200,
,,,27.640000000000,   0.15600,
,,,27.680000000000,   0.12800,
,,,27.720000000000,   0.26800,
,,,27.760000000000,   0.14400,
,,,27.800000000000,   0.16000,
,,,27.840000000000,   0.12800,
,,,27.880000000000,   0.14000,
,,,27.920000000000,   0.15600,
,,,27.960000000000,   0.15200,
,,,28.000000000000,   0.12800,
,,,28.040000000000,   0.16400,
,,,28.080000000000,   0.16000,
,,,28.120000000000,   0.16000,
,,,28.160000000000,   0.12400,
,,,28.200000000000,   0.15200,
,,,28.240000000000,   0.15600,
,,,28.280000000000,   0.12800,
,,,28.320000000000,   0.13600,
,,,28.360000000000,   0.15200,
,,,28.400000000000,   0.16800,
,,,28.440000000000,   0.12400,
,,,28.480000000000,   0.12000,
,,,28.520000000000,   0.16000,
,,,28.560000000000,   0.14800,
,,,28.600000000000,   0.12800,
,,,28.640000000000,   0.12400,
,,,28.680000000000,   0.25600,
,,,28.720000000000,   0.15600,
,,,28.760000000000,   0.13200,
,,,28.800000000000,   0.13200,
,,,28.840000000000,   0.15200,
,,,28.880000000000,   0.16000,
,,,28.920000000000,   0.12400,
,,,28.960000000000,   0.16800,
,,,29.000000000000,   0.14400,
,,,29.040000000000,   0.12800,
,,,29.080000000000,   0.12000,
,,,29.120000000000,   0.14800,
,,,29.160000000000,   0.15600,
,,,29.200000000000,   0.14400,
,,,29.240000000000,   0.12400,
,,,29.280000000000,   0.16000,
,,,29.320000000000,   0.15600,
,,,29.360000000000,   0.12400,
,,,29.400000000000,   0.12000,
,,,29.440000000000,   0.15600,
,,,29.480000000000,   0.15200,
,,,29.520000000000,   0.27600,
,,,29.560000000000,   0.13200,
,,,29.600000000000,   0.15600,
,,,29.640000000000,   0.15600,
,,,29.680000000000,   0.13200,
,,,29.720000000000,   0.14800,
,,,29.760000000000,   0.14000,
,,,29.800000000000,   0.12800,
,,,29.840000000000,   0.13600,
,,,29.880000000000,   0.13600,
,,,29.920000000000,   0.16000,
,,,29.960000000000,   0.12400,
,,,30.000000000000,   0.13200,
,,,30.040000000000,   0.14800,
,,,30.080000000000,   0.15600,
,,,30.120000000000,   0.12800,
,,,30.160000000000,   0.13200,
,,,30.200000000000,   0.16400,
,,,30.240000000000,   0.14800,
,,,30.280000000000,   0.13600,
,,,30.320000000000,   0.15200,
,,,30.360000000000,   0.17200,
,,,30.400000000000,   0.12000,
,,,30.440000000000,   0.12800,
,,,30.480000000000,   0.15600,
,,,30.520000000000,   0.16000,
,,,30.560000000000,   0.13200,
,,,30.600000000000,   0.11200,
,,,30.640000000000,   0.14800,
,,,30.680000000000,   0.22400,
,,,30.720000000000,   0.12800,
,,,30.760000000000,   0.12800,
,,,30.800000000000,   0.15200,
,,,30.840000000000,   0.15200,
,,,30.880000000000,   0.12000,
,,,30.920000000000,   0.13200,
,,,30.960000000000,   0.15200,
,,,31.000000000000,   0.15200,
,,,31.040000000000,   0.12400,
,,,31.080000000000,   0.17600,
,,,31.120000000000,   0.16800,
,,,31.160000000000,   0.12400,
,,,31.200000000000,   0.12000,
,,,31.240000000000,   0.15600,
,,,31.280000000000,   0.15200,
,,,31.320000000000,   0.12400,
,,,31.360000000000,   0.12400,
,,,31.400000000000,   0.16000,
,,,31.440000000000,   0.15200,
,,,31.480000000000,   0.13600,
,,,31.520000000000,   0.13200,
,,,31.560000000000,   0.16000,
,,,31.600000000000,   0.15200,
,,,31.640000000000,   0.15600,
,,,31.680000000000,   0.14000,
,,,31.720000000000,   0.15200,
,,,31.760000000000,   0.14400,
,,,31.800000000000,   0.12000,
,,,31.840000000000,   0.14800,
,,,31.880000000000,   0.14000,
,,,31.920000000000,   0.12000,
,,,31.960000000000,   0.18000,
,,,32.000000000000,   0.14000,
,,,32.040000000000,   0.15600,
,,,32.080000000000,   0.13600,
,,,32.120000000000,   0.13200,
,,,32.160000000000,   0.14000,
,,,32.200000000000,   0.16000,
,,,32.240000000000,   0.14400,
,,,32.280000000000,   0.13600,
,,,32.320000000000,   0.16000,
,,,32.360000000000,   0.14400,
,,,32.400000000000,   0.13600,
,,,32.440000000000,   0.16000,
,,,32.480000000000,   0.16000,
,,,32.520000000000,   0.13600,
,,,32.560000000000,   0.13600,
,,,32.600000000000,   0.16000,
,,,32.640000000000,   0.16000,
,,,32.680000000000,   0.14000,
,,,32.720000000000,   0.12800,
,,,32.760000000000,   0.14800,
,,,32.800000000000,   0.16000,
,,,32.840000000000,   0.12400,
,,,32.880000000000,   0.12400,
,,,32.920000000000,   0.16400,
,,,32.960000000000,   0.15200,
,,,33.000000000000,   0.12800,
,,,33.040000000000,   0.13600,
,,,33.080000000000,   0.14800,
,,,33.120000000000,   0.16000,
,,,33.160000000000,   0.12400,
,,,33.200000000000,   0.18000,
,,,33.240000000000,   0.15600,
,,,33.280000000000,   0.12400,
,,,33.320000000000,   0.12800,
,,,33.360000000000,   0.16000,
,,,33.400000000000,   0.15200,
,,,33.440000000000,   0.14400,
,,,33.480000000000,   0.12400,
,,,33.520000000000,   0.15600,
,,,33.560000000000,   0.15600,
,,,33.600000000000,   0.12400,
,,,33.640000000000,   0.13200,
,,,33.680000000000,   0.14800,
,,,33.720000000000,   0.16000,
,,,33.760000000000,   0.14000,
,,,33.800000000000,   0.14000,
,,,33.840000000000,   0.15600,
,,,33.880000000000,   0.16000,
,,,33.920000000000,   0.13600,
,,,33.960000000000,   0.15600,
,,,34.000000000000,   0.16000,
,,,34.040000000000,   0.12800,
,,,34.080000000000,   0.12400,
,,,34.120000000000,   0.15200,
,,,34.160000000000,   0.16000,
,,,34.200000000000,   0.12800,
,,,34.240000000000,   0.13200,
,,,34.280000000000,   0.14800,
,,,34.320000000000,   0.15200,
,,,34.360000000000,   0.12800,
,,,34.400000000000,   0.12800,
,,,34.440000000000,   0.16400,
,,,34.480000000000,   0.15600,
,,,34.520000000000,   0.13600,
,,,34.560000000000,   0.15200,
,,,34.600000000000,   0.15600,
,,,34.640000000000,   0.12400,
,,,34.680000000000,   0.12800,
,,,34.720000000000,   0.14800,
,,,34.760000000000,   0.14800,
,,,34.800000000000,   0.12400,
,,,34.840000000000,   0.14000,
,,,34.880000000000,   0.16000,
,,,34.920000000000,   0.15600,
,,,34.960000000000,   0.14800,
,,,35.000000000000,   0.13200,
,,,35.040000000000,   0.15200,
,,,35.080000000000,   0.14400,
,,,35.120000000000,   0.13200,
,,,35.160000000000,   0.12800,
,,,35.200000000000,   0.15600,
,,,35.240000000000,   0.15600,
,,,35.280000000000,   0.13600,
,,,35.320000000000,   0.17600,
,,,35.360000000000,   0.15200,
,,,35.400000000000,   0.13600,
,,,35.440000000000,   0.12800,
,,,35.480000000000,   0.15600,
,,,35.520000000000,   0.16000,
,,,35.560000000000,   0.13200,
,,,35.600000000000,   0.12800,
,,,35.640000000000,   0.16000,
,,,35.680000000000,   0.15200,
,,,35.720000000000,   0.12800,
,,,35.760000000000,   0.12400,
,,,35.800000000000,   0.15600,
,,,35.840000000000,   0.15600,
,,,35.880000000000,   0.12800,
,,,35.920000000000,   0.14800,
,,,35.960000000000,   0.15600,
,,,36.000000000000,   0.16000,
,,,36.040000000000,   0.13600,
,,,36.080000000000,   0.15600,
,,,36.120000000000,   0.16000,
,,,36.160000000000,   0.12800,
,,,36.200000000000,   0.12800,
,,,36.240000000000,   0.15200,
,,,36.280000000000,   0.14800,
,,,36.320000000000,   0.13200,
,,,36.360000000000,   0.12400,
,,,36.400000000000,   0.16000,
,,,36.440000000000,   0.16000,
,,,36.480000000000,   0.12800,
,,,36.520000000000,   0.13200,
,,,36.560000000000,   0.16000,
,,,36.600000000000,   0.16000,
,,,36.640000000000,   0.12800,
,,,36.680000000000,   0.16400,
,,,36.720000000000,   0.15200,
,,,36.760000000000,   0.12800,
,,,36.800000000000,   0.13200,
,,,36.840000000000,   0.15200,
,,,36.880000000000,   0.15600,
,,,36.920000000000,   0.13200,
,,,36.960000000000,   0.13600,
,,,37.000000000000,   0.14800,
,,,37.040000000000,   0.16000,
,,,37.080000000000,   0.13600,
,,,37.120000000000,   0.12400,
,,,37.160000000000,   0.16000,
,,,37.200000000000,   0.16000,
,,,37.240000000000,   0.13200,
,,,37.280000000000,   0.12800,
,,,37.320000000000,   0.14800,
,,,37.360000000000,   0.16000,
,,,37.400000000000,   0.15200,
,,,37.440000000000,   0.16000,
,,,37.480000000000,   0.15200,
,,,37.520000000000,   0.13200,
,,,37.560000000000,   0.12400,
,,,37.600000000000,   0.15200,
,,,37.640000000000,   0.14800,
,,,37.680000000000,   0.13200,
,,,37.720000000000,   0.12800,
,,,37.760000000000,   0.15600,
,,,37.800000000000,   0.12800,
,,,37.840000000000,   0.05600,
,,,37.880000000000,   0.00400,
,,,37.920000000000,  -0.00400,
,,,37.960000000000,   0.00000,
,,,38.000000000000,   0.00000,
,,,38.040000000000,   0.00400,
,,,38.080000000000,   0.00000,
,,,38.120000000000,   0.00400,
,,,38.160000000000,   0.00400,
,,,38.200000000000,   0.00000,
,,,38.240000000000,   0.00000,
,,,38.280000000000,  -0.00800,
,,,38.320000000000,   0.00000,
,,,38.360000000000,   0.00400,
,,,38.400000000000,   0.00000,
,,,38.440000000000,   0.00400,
,,,38.480000000000,   0.00800,
,,,38.520000000000,   0.00800,
,,,38.560000000000,   0.00000,
,,,38.600000000000,  -0.00400,
,,,38.640000000000,  -0.00800,
,,,38.680000000000,  -0.00400,
,,,38.720000000000,   0.00800,
,,,38.760000000000,   0.00000,
,,,38.800000000000,   0.00000,
,,,38.840000000000,   0.00000,
,,,38.880000000000,   0.00400,
,,,38.920000000000,   0.00400,
,,,38.960000000000,  -0.01600,
,,,39.000000000000,   0.00400,
,,,39.040000000000,  -0.00800,
,,,39.080000000000,   0.00000,
,,,39.120000000000,  -0.00400,
,,,39.160000000000,  -0.00800,
,,,39.200000000000,  -0.00400,
,,,39.240000000000,   0.00000,
,,,39.280000000000,   0.00800,
,,,39.320000000000,  -0.01600,
,,,39.360000000000,  -0.00800,
,,,39.400000000000,   0.00000,
,,,39.440000000000,   0.00000,
,,,39.480000000000,   0.00000,
,,,39.520000000000,   0.01200,
,,,39.560000000000,   0.00800,
,,,39.600000000000,  -0.00400,
,,,39.640000000000,  -0.01200,
,,,39.680000000000,   0.00000,
,,,39.720000000000,   0.00800,
,,,39.760000000000,   0.00000,
,,,39.800000000000,   0.00800,
,,,39.840000000000,   0.00000,
,,,39.880000000000,  -0.00800,
,,,39.920000000000,  -0.00400,
,,,39.960000000000,   0.00000,
,,,40.000000000000,   0.00400,
,,,40.040000000000,  -0.00800,
,,,40.080000000000,   0.00000,
,,,40.120000000000,   0.00800,
,,,40.160000000000,   0.00800,
,,,40.200000000000,   0.00800,
,,,40.240000000000,   0.00400,
,,,40.280000000000,   0.00400,
,,,40.320000000000,  -0.00400,
,,,40.360000000000,   0.00000,
,,,40.400000000000,   0.00400,
,,,40.440000000000,   0.00400,
,,,40.480000000000,   0.00400,
,,,40.520000000000,   0.00400,
,,,40.560000000000,   0.00800,
,,,40.600000000000,   0.00400,
,,,40.640000000000,   0.00800,
,,,40.680000000000,   0.00400,
,,,40.720000000000,   0.00800,
,,,40.760000000000,   0.00000,
,,,40.800000000000,   0.00000,
,,,40.840000000000,  -0.00400,
,,,40.880000000000,   0.00000,
,,,40.920000000000,   0.00400,
,,,40.960000000000,  -0.00800,
,,,41.000000000000,   0.00400,
,,,41.040000000000,   0.00000,
,,,41.080000000000,   0.00000,
,,,41.120000000000,  -0.00400,
,,,41.160000000000,  -0.00400,
,,,41.200000000000,   0.00000,
,,,41.240000000000,  -0.00800,
,,,41.280000000000,   0.00000,
,,,41.320000000000,   0.00000,
,,,41.360000000000,   0.00000,
,,,41.400000000000,  -0.00400,
,,,41.440000000000,   0.00400,
,,,41.480000000000,   0.00400,
,,,41.520000000000,   0.00000,
,,,41.560000000000,  -0.00400,
,,,41.600000000000,  -0.00800,
,,,41.640000000000,  -0.00400,
,,,41.680000000000,   0.00800,
,,,41.720000000000,  -0.00800,
,,,41.760000000000,  -0.00400,
,,,41.800000000000,   0.00000,
,,,41.840000000000,   0.00000,
,,,41.880000000000,   0.00000,
,,,41.920000000000,  -0.00400,
,,,41.960000000000,  -0.00400,
,,,42.000000000000,   0.00000,
,,,42.040000000000,   0.00000,
,,,42.080000000000,   0.00000,
,,,42.120000000000,   0.00400,
,,,42.160000000000,   0.00400,
,,,42.200000000000,   0.00400,
,,,42.240000000000,   0.00400,
,,,42.280000000000,   0.00000,
,,,42.320000000000,   0.00400,
,,,42.360000000000,   0.00400,
,,,42.400000000000,   0.00000,
,,,42.440000000000,  -0.00400,
,,,42.480000000000,   0.00000,
,,,42.520000000000,   0.00000,
,,,42.560000000000,  -0.00400,
,,,42.600000000000,  -0.00400,
,,,42.640000000000,  -0.00800,
,,,42.680000000000,  -0.00400,
,,,42.720000000000,   0.00000,
,,,42.760000000000,   0.00400,
,,,42.800000000000,   0.00800,
,,,42.840000000000,  -0.00800,
,,,42.880000000000,   0.00800,
,,,42.920000000000,  -0.00400,
,,,42.960000000000,   0.00400,
,,,43.000000000000,   0.00000,
,,,43.040000000000,   0.00000,
,,,43.080000000000,  -0.00800,
,,,43.120000000000,   0.00400,
,,,43.160000000000,   0.00800,
,,,43.200000000000,   0.00000,
,,,43.240000000000,   0.00400,
,,,43.280000000000,  -0.00400,
,,,43.320000000000,   0.00400,
,,,43.360000000000,   0.00000,
,,,43.400000000000,   0.00000,
,,,43.440000000000,   0.00000,
,,,43.480000000000,  -0.00400,
,,,43.520000000000,   0.00400,
,,,43.560000000000,   0.00000,
,,,43.600000000000,   0.00000,
,,,43.640000000000,   0.00000,
,,,43.680000000000,   0.00800,
,,,43.720000000000,   0.00800,
,,,43.760000000000,  -0.00400,
,,,43.800000000000,   0.00000,
,,,43.840000000000,  -0.00400,
,,,43.880000000000,   0.00000,
,,,43.920000000000,   0.00000,
,,,43.960000000000,   0.00000,
,,,44.000000000000,   0.00000,
,,,44.040000000000,   0.00000,
,,,44.080000000000,   0.00000,
,,,44.120000000000,   0.02000,
,,,44.160000000000,   0.00000,
,,,44.200000000000,  -0.00800,
,,,44.240000000000,   0.01200,
,,,44.280000000000,   0.00000,
,,,44.320000000000,   0.00400,
,,,44.360000000000,  -0.00400,
,,,44.400000000000,   0.00000,
,,,44.440000000000,   0.00400,
,,,44.480000000000,   0.00000,
,,,44.520000000000,   0.00400,
,,,44.560000000000,   0.00800,
,,,44.600000000000,   0.00000,
,,,44.640000000000,   0.00000,
,,,44.680000000000,   0.00800,
,,,44.720000000000,   0.00000,
,,,44.760000000000,  -0.00800,
,,,44.800000000000,  -0.00800,
,,,44.840000000000,   0.00400,
,,,44.880000000000,   0.00000,
,,,44.920000000000,   0.00000,
,,,44.960000000000,   0.00400,
,,,45.000000000000,   0.00000,
,,,45.040000000000,   0.00000,
,,,45.080000000000,  -0.00800,
,,,45.120000000000,   0.00000,
,,,45.160000000000,   0.00000,
,,,45.200000000000,   0.00800,
,,,45.240000000000,   0.00000,
,,,45.280000000000,   0.00800,
,,,45.320000000000,   0.00400,
,,,45.360000000000,   0.00400,
,,,45.400000000000,  -0.01200,
,,,45.440000000000,   0.00400,
,,,45.480000000000,   0.00000,
,,,45.520000000000,   0.00000,
,,,45.560000000000,   0.09600,
,,,45.600000000000,   0.12400,
,,,45.640000000000,   0.07200,
,,,45.680000000000,   0.09600,
,,,45.720000000000,   0.06800,
,,,45.760000000000,   0.09200,
,,,45.800000000000,   0.08800,
,,,45.840000000000,   0.10400,
,,,45.880000000000,   0.06800,
,,,45.920000000000,   0.09200,
,,,45.960000000000,   0.09200,
,,,46.000000000000,   0.07200,
,,,46.040000000000,   0.06800,
,,,46.080000000000,   0.08400,
,,,46.120000000000,   0.07600,
,,,46.160000000000,   0.05600,
,,,46.200000000000,   0.05600,
,,,46.240000000000,   0.08000,
,,,46.280000000000,   0.08400,
,,,46.320000000000,   0.06000,
,,,46.360000000000,   0.13200,
,,,46.400000000000,   0.15200,
,,,46.440000000000,   0.15600,
,,,46.480000000000,   0.13200,
,,,46.520000000000,   0.16800,
,,,46.560000000000,   0.15600,
,,,46.600000000000,   0.12400,
,,,46.640000000000,   0.11200,
,,,46.680000000000,   0.16000,
,,,46.720000000000,   0.15600,
,,,46.760000000000,   0.13200,
,,,46.800000000000,   0.12000,
,,,46.840000000000,   0.14800,
,,,46.880000000000,   0.15600,
,,,46.920000000000,   0.12400,
,,,46.960000000000,   0.12000,
,,,47.000000000000,   0.15200,
,,,47.040000000000,   0.16000,
,,,47.080000000000,   0.12400,
,,,47.120000000000,   0.15200,
,,,47.160000000000,   0.14800,
,,,47.200000000000,   0.12800,
,,,47.240000000000,   0.12800,
,,,47.280000000000,   0.15200,
,,,47.320000000000,   0.16000,
,,,47.360000000000,   0.12800,
,,,47.400000000000,   0.12800,
,,,47.440000000000,   0.15200,
,,,47.480000000000,   0.14000,
,,,47.520000000000,   0.12000,
,,,47.560000000000,   0.12000,
,,,47.600000000000,   0.15200,
,,,47.640000000000,   0.15200,
,,,47.680000000000,   0.12800,
,,,47.720000000000,   0.12000,
,,,47.760000000000,   0.15200,
,,,47.800000000000,   0.14800,
,,,47.840000000000,   0.12800,
,,,47.880000000000,   0.15600,
,,,47.920000000000,   0.16000,
,,,47.960000000000,   0.12800,
,,,48.000000000000,   0.13200,
,,,48.040000000000,   0.15200,
,,,48.080000000000,   0.15600,
,,,48.120000000000,   0.12400,
,,,48.160000000000,   0.12400,
,,,48.200000000000,   0.14800,
,,,48.240000000000,   0.15200,
,,,48.280000000000,   0.12800,
,,,48.320000000000,   0.12400,
,,,48.360000000000,   0.14400,
,,,48.400000000000,   0.15200,
,,,48.440000000000,   0.12800,
,,,48.480000000000,   0.13600,
,,,48.520000000000,   0.16000,
,,,48.560000000000,   0.12800,
,,,48.600000000000,   0.12800,
,,,48.640000000000,   0.15600,
,,,48.680000000000,   0.15600,
,,,48.720000000000,   0.12800,
,,,48.760000000000,   0.12800,
,,,48.800000000000,   0.16000,
,,,48.840000000000,   0.15200,
,,,48.880000000000,   0.14000,
,,,48.920000000000,   0.13200,
,,,48.960000000000,   0.15200,
,,,49.000000000000,   0.14800,
,,,49.040000000000,   0.13200,
,,,49.080000000000,   0.13600,
,,,49.120000000000,   0.14000,
,,,49.160000000000,   0.16000,
,,,49.200000000000,   0.12800,
,,,49.240000000000,   0.16800,
,,,49.280000000000,   0.14400,
,,,49.320000000000,   0.12000,
,,,49.360000000000,   0.12000,
,,,49.400000000000,   0.15600,
,,,49.440000000000,   0.16000,
,,,49.480000000000,   0.12800,
,,,49.520000000000,   0.13200,
,,,49.560000000000,   0.15200,
,,,49.600000000000,   0.14400,
,,,49.640000000000,   0.13200,
,,,49.680000000000,   0.12000,
,,,49.720000000000,   0.14800,
,,,49.760000000000,   0.15600,
,,,49.800000000000,   0.13200,
,,,49.840000000000,   0.14800,
,,,49.880000000000,   0.16000,
,,,49.920000000000,   0.15200,
,,,49.960000000000,   0.13600,
,,,50.000000000000,   0.15600,
,,,50.040000000000,   0.15600,
,,,50.080000000000,   0.12800,
,,,50.120000000000,   0.13200,
,,,50.160000000000,   0.15200,
,,,50.200000000000,   0.15600,
,,,50.240000000000,   0.12000,
,,,50.280000000000,   0.12400,
,,,50.320000000000,   0.16000,
,,,50.360000000000,   0.15200,
,,,50.400000000000,   0.11600,
,,,50.440000000000,   0.13200,
,,,50.480000000000,   0.14400,
,,,50.520000000000,   0.15200,
,,,50.560000000000,   0.12800,
,,,50.600000000000,   0.15600,
,,,50.640000000000,   0.14800,
,,,50.680000000000,   0.11200,
,,,50.720000000000,   0.12800,
,,,50.760000000000,   0.14800,
,,,50.800000000000,   0.15200,
,,,50.840000000000,   0.13200,
,,,50.880000000000,   0.12400,
,,,50.920000000000,   0.15200,
,,,50.960000000000,   0.14800,
,,,51.000000000000,   0.13200,
,,,51.040000000000,   0.12800,
,,,51.080000000000,   0.15600,
,,,51.120000000000,   0.15600,
,,,51.160000000000,   0.11600,
,,,51.200000000000,   0.13200,
,,,51.240000000000,   0.14800,
,,,51.280000000000,   0.15200,
,,,51.320000000000,   0.13600,
,,,51.360000000000,   0.14800,
,,,51.400000000000,   0.16000,
,,,51.440000000000,   0.12400,
,,,51.480000000000,   0.12400,
,,,51.520000000000,   0.13600,
,,,51.560000000000,   0.15200,
,,,51.600000000000,   0.12400,
,,,51.640000000000,   0.12400,
,,,51.680000000000,   0.16000,
,,,51.720000000000,   0.15600,
,,,51.760000000000,   0.13200,
,,,51.800000000000,   0.13200,
,,,51.840000000000,   0.15600,
,,,51.880000000000,   0.15200,
,,,51.920000000000,   0.13200,
,,,51.960000000000,   0.16000,
,,,52.000000000000,   0.15200,
,,,52.040000000000,   0.13600,
,,,52.080000000000,   0.12000,
,,,52.120000000000,   0.15600,
,,,52.160000000000,   0.15600,
,,,52.200000000000,   0.12400,
,,,52.240000000000,   0.12800,
,,,52.280000000000,   0.15200,
,,,52.320000000000,   0.15600,
,,,52.360000000000,   0.12800,
,,,52.400000000000,   0.13200,
,,,52.440000000000,   0.15200,
,,,52.480000000000,   0.15200,
,,,52.520000000000,   0.16800,
,,,52.560000000000,   0.13600,
,,,52.600000000000,   0.15600,
,,,52.640000000000,   0.15200,
,,,52.680000000000,   0.12400,
,,,52.720000000000,   0.18800,
,,,52.760000000000,   0.15600,
,,,52.800000000000,   0.13200,
,,,52.840000000000,   0.13600,
,,,52.880000000000,   0.14800,
,,,52.920000000000,   0.15200,
,,,52.960000000000,   0.12400,
,,,53.000000000000,   0.12000,
,,,53.040000000000,   0.15600,
,,,53.080000000000,   0.15600,
,,,53.120000000000,   0.12400,
,,,53.160000000000,   0.13600,
,,,53.200000000000,   0.14800,
,,,53.240000000000,   0.14800,
,,,53.280000000000,   0.12400,
,,,53.320000000000,   0.13600,
,,,53.360000000000,   0.14800,
,,,53.400000000000,   0.15600,
,,,53.440000000000,   0.13200,
,,,53.480000000000,   0.15600,
,,,53.520000000000,   0.15200,
,,,53.560000000000,   0.13200,
,,,53.600000000000,   0.12800,
,,,53.640000000000,   0.16000,
,,,53.680000000000,   0.15600,
,,,53.720000000000,   0.12000,
,,,53.760000000000,   0.12800,
,,,53.800000000000,   0.14800,
,,,53.840000000000,   0.15600,
,,,53.880000000000,   0.14000,
,,,53.920000000000,   0.11600,
,,,53.960000000000,   0.15600,
,,,54.000000000000,   0.15600,
,,,54.040000000000,   0.12400,
,,,54.080000000000,   0.16000,
,,,54.120000000000,   0.14000,
,,,54.160000000000,   0.12800,
,,,54.200000000000,   0.13200,
,,,54.240000000000,   0.15600,
,,,54.280000000000,   0.15600,
,,,54.320000000000,   0.12800,
,,,54.360000000000,   0.12000,
,,,54.400000000000,   0.15600,
,,,54.440000000000,   0.15600,
,,,54.480000000000,   0.12800,
,,,54.520000000000,   0.13200,
,,,54.560000000000,   0.15200,
,,,54.600000000000,   0.15600,
,,,54.640000000000,   0.12400,
,,,54.680000000000,   0.12400,
,,,54.720000000000,   0.15200,
,,,54.760000000000,   0.15200,
,,,54.800000000000,   0.12400,
,,,54.840000000000,   0.16000,
,,,54.880000000000,   0.15600,
,,,54.920000000000,   0.12800,
,,,54.960000000000,   0.12400,
,,,55.000000000000,   0.15600,
,,,55.040000000000,   0.15600,
,,,55.080000000000,   0.12800,
,,,55.120000000000,   0.12400,
,,,55.160000000000,   0.15600,
,,,55.200000000000,   0.16400,
,,,55.240000000000,   0.13200,
,,,55.280000000000,   0.13600,
,,,55.320000000000,   0.16000,
,,,55.360000000000,   0.15600,
,,,55.400000000000,   0.12400,
,,,55.440000000000,   0.14800,
,,,55.480000000000,   0.15200,
,,,55.520000000000,   0.12400,
,,,55.560000000000,   0.13200,
,,,55.600000000000,   0.15600,
,,,55.640000000000,   0.14800,
,,,55.680000000000,   0.12400,
,,,55.720000000000,   0.12800,
,,,55.760000000000,   0.15600,
,,,55.800000000000,   0.14800,
,,,55.840000000000,   0.11200,
,,,55.880000000000,   0.13600,
,,,55.920000000000,   0.15200,
,,,55.960000000000,   0.15200,
,,,56.000000000000,   0.13600,
,,,56.040000000000,   0.12000,
,,,56.080000000000,   0.15600,
,,,56.120000000000,   0.14800,
,,,56.160000000000,   0.12400,
,,,56.200000000000,   0.17200,
,,,56.240000000000,   0.15200,
,,,56.280000000000,   0.13600,
,,,56.320000000000,   0.12800,
,,,56.360000000000,   0.15200,
,,,56.400000000000,   0.14800,
,,,56.440000000000,   0.12800,
,,,56.480000000000,   0.12400,
,,,56.520000000000,   0.15200,
,,,56.560000000000,   0.15200,
,,,56.600000000000,   0.12400,
,,,56.640000000000,   0.12400,
,,,56.680000000000,   0.15200,
,,,56.720000000000,   0.15600,
,,,56.760000000000,   0.11600,
,,,56.800000000000,   0.13600,
,,,56.840000000000,   0.14800,
,,,56.880000000000,   0.15600,
,,,56.920000000000,   0.12000,
,,,56.960000000000,   0.15200,
,,,57.000000000000,   0.16000,
,,,57.040000000000,   0.12400,
,,,57.080000000000,   0.13200,
,,,57.120000000000,   0.15600,
,,,57.160000000000,   0.14800,
,,,57.200000000000,   0.13200,
,,,57.240000000000,   0.13200,
,,,57.280000000000,   0.16000,
,,,57.320000000000,   0.15200,
,,,57.360000000000,   0.12400,
,,,57.400000000000,   0.12800,
,,,57.440000000000,   0.15200,
,,,57.480000000000,   0.14800,
,,,57.520000000000,   0.11600,
,,,57.560000000000,   0.15600,
,,,57.600000000000,   0.14800,
,,,57.640000000000,   0.12800,
,,,57.680000000000,   0.13200,
,,,57.720000000000,   0.15200,
,,,57.760000000000,   0.15600,
,,,57.800000000000,   0.12400,
,,,57.840000000000,   0.12400,
,,,57.880000000000,   0.15600,
,,,57.920000000000,   0.18800,
,,,57.960000000000,   0.12800,
,,,58.000000000000,   0.13200,
,,,58.040000000000,   0.16000,
,,,58.080000000000,   0.16000,
,,,58.120000000000,   0.12000,
,,,58.160000000000,   0.13200,
,,,58.200000000000,   0.16000,
,,,58.240000000000,   0.14800,
,,,58.280000000000,   0.13200,
,,,58.320000000000,   0.15200,
,,,58.360000000000,   0.14800,
,,,58.400000000000,   0.12800,
,,,58.440000000000,   0.13600,
,,,58.480000000000,   0.16000,
,,,58.520000000000,   0.15600,
,,,58.560000000000,   0.13600,
,,,58.600000000000,   0.12400,
,,,58.640000000000,   0.15600,
,,,58.680000000000,   0.14800,
,,,58.720000000000,   0.12800,
,,,58.760000000000,   0.13200,
,,,58.800000000000,   0.15200,
,,,58.840000000000,   0.14400,
,,,58.880000000000,   0.13600,
,,,58.920000000000,   0.14400,
,,,58.960000000000,   0.14400,
,,,59.000000000000,   0.16000,
,,,59.040000000000,   0.12800,
,,,59.080000000000,   0.15200,
,,,59.120000000000,   0.14800,
,,,59.160000000000,   0.11200,
,,,59.200000000000,   0.12800,
,,,59.240000000000,   0.15200,
,,,59.280000000000,   0.15600,
,,,59.320000000000,   0.12800,
,,,59.360000000000,   0.12400,
,,,59.400000000000,   0.15200,
,,,59.440000000000,   0.15600,
,,,59.480000000000,   0.12800,
,,,59.520000000000,   0.12800,
,,,59.560000000000,   0.15200,
,,,59.600000000000,   0.15200,
,,,59.640000000000,   0.12800,
,,,59.680000000000,   0.16800,
,,,59.720000000000,   0.16000,
,,,59.760000000000,   0.12400,
,,,59.800000000000,   0.12400,
,,,59.840000000000,   0.16000,
,,,59.880000000000,   0.14400,
,,,59.920000000000,   0.12400,
,,,59.960000000000,   0.12400,
,,,60.000000000000,   0.16000,
,,,60.040000000000,   0.14800,
,,,60.080000000000,   0.12400,
,,,60.120000000000,   0.12400,
,,,60.160000000000,   0.14800,
,,,60.200000000000,   0.15200,
,,,60.240000000000,   0.12800,
,,,60.280000000000,   0.13200,
,,,60.320000000000,   0.15200,
,,,60.360000000000,   0.14400,
,,,60.400000000000,   0.12400,
,,,60.440000000000,   0.14800,
,,,60.480000000000,   0.15200,
,,,60.520000000000,   0.13200,
,,,60.560000000000,   0.13200,
,,,60.600000000000,   0.15600,
,,,60.640000000000,   0.14800,
,,,60.680000000000,   0.12400,
,,,60.720000000000,   0.12400,
,,,60.760000000000,   0.15600,
,,,60.800000000000,   0.14800,
,,,60.840000000000,   0.12800,
,,,60.880000000000,   0.13600,
,,,60.920000000000,   0.15600,
,,,60.960000000000,   0.14400,
,,,61.000000000000,   0.12800,
,,,61.040000000000,   0.14800,
,,,61.080000000000,   0.15600,
,,,61.120000000000,   0.14400,
,,,61.160000000000,   0.13200,
,,,61.200000000000,   0.15600,
,,,61.240000000000,   0.16000,
,,,61.280000000000,   0.12800,
,,,61.320000000000,   0.12400,
,,,61.360000000000,   0.15600,
,,,61.400000000000,   0.15600,
,,,61.440000000000,   0.12800,
,,,61.480000000000,   0.12800,
,,,61.520000000000,   0.26000,
,,,61.560000000000,   0.14800,
,,,61.600000000000,   0.12800,
,,,61.640000000000,   0.13200,
,,,61.680000000000,   0.15200,
,,,61.720000000000,   0.15600,
,,,61.760000000000,   0.12800,
,,,61.800000000000,   0.16400,
,,,61.840000000000,   0.28000,
,,,61.880000000000,   0.11600,
,,,61.920000000000,   0.13600,
,,,61.960000000000,   0.16000,
,,,62.000000000000,   0.14800,
,,,62.040000000000,   0.14400,
,,,62.080000000000,   0.13200,
,,,62.120000000000,   0.15600,
,,,62.160000000000,   0.15600,
,,,62.200000000000,   0.11600,
,,,62.240000000000,   0.11600,
,,,62.280000000000,   0.16000,
,,,62.320000000000,   0.16000,
,,,62.360000000000,   0.14400,
,,,62.400000000000,   0.12800,
,,,62.440000000000,   0.15600,
,,,62.480000000000,   0.15600,
,,,62.520000000000,   0.12800,
,,,62.560000000000,   0.16400,
,,,62.600000000000,   0.15200,
,,,62.640000000000,   0.13200,
,,,62.680000000000,   0.27600,
,,,62.720000000000,   0.15600,
,,,62.760000000000,   0.15600,
,,,62.800000000000,   0.12400,
,,,62.840000000000,   0.12800,
,,,62.880000000000,   0.16000,
,,,62.920000000000,   0.14800,
,,,62.960000000000,   0.13200,
,,,63.000000000000,   0.16400,
,,,63.040000000000,   0.15600,
,,,63.080000000000,   0.15600,
,,,63.120000000000,   0.12400,
,,,63.160000000000,   0.14000,
,,,63.200000000000,   0.16000,
,,,63.240000000000,   0.16400,
,,,63.280000000000,   0.12800,
,,,63.320000000000,   0.16400,
,,,63.360000000000,   0.14800,
,,,63.400000000000,   0.13200,
,,,63.440000000000,   0.12000,
,,,63.480000000000,   0.15600,
,,,63.520000000000,   0.15200,
,,,63.560000000000,   0.12800,
,,,63.600000000000,   0.12400,
,,,63.640000000000,   0.15600,
,,,63.680000000000,   0.14800,
,,,63.720000000000,   0.18800,
,,,63.760000000000,   0.13200,
,,,63.800000000000,   0.16000,
,,,63.840000000000,   0.15200,
,,,63.880000000000,   0.12400,
,,,63.920000000000,   0.25600,
,,,63.960000000000,   0.16000,
,,,64.000000000000,   0.13600,
,,,64.040000000000,   0.13600,
,,,64.080000000000,   0.15600,
,,,64.120000000000,   0.15600,
,,,64.160000000000,   0.13600,
,,,64.200000000000,   0.13200,
,,,64.240000000000,   0.20800,
,,,64.280000000000,   0.16000,
,,,64.320000000000,   0.13600,
,,,64.360000000000,   0.13200,
,,,64.400000000000,   0.15600,
,,,64.440000000000,   0.16000,
,,,64.480000000000,   0.12800,
,,,64.520000000000,   0.12000,
,,,64.560000000000,   0.16000,
,,,64.600000000000,   0.15600,
,,,64.640000000000,   0.13200,
,,,64.680000000000,   0.15200,
,,,64.720000000000,   0.15600,
,,,64.760000000000,   0.12000,
,,,64.800000000000,   0.13200,
,,,64.840000000000,   0.16000,
,,,64.880000000000,   0.15600,
,,,64.920000000000,   0.13600,
,,,64.960000000000,   0.11200,
,,,65.000000000000,   0.16000,
,,,65.040000000000,   0.16000,
,,,65.080000000000,   0.12000,
,,,65.120000000000,   0.14400,
,,,65.160000000000,   0.15200,
,,,65.200000000000,   0.14800,
,,,65.240000000000,   0.13600,
,,,65.280000000000,   0.12400,
,,,65.320000000000,   0.16000,
,,,65.360000000000,   0.15600,
,,,65.400000000000,   0.25200,
,,,65.440000000000,   0.16000,
,,,65.480000000000,   0.16000,
,,,65.520000000000,   0.13600,
,,,65.560000000000,   0.13600,
,,,65.600000000000,   0.16000,
,,,65.640000000000,   0.16000,
,,,65.680000000000,   0.12800,
,,,65.720000000000,   0.12000,
,,,65.760000000000,   0.15600,
,,,65.800000000000,   0.14400,
,,,65.840000000000,   0.13200,
,,,65.880000000000,   0.12400,
,,,65.920000000000,   0.23600,
,,,65.960000000000,   0.15200,
,,,66.000000000000,   0.13200,
,,,66.040000000000,   0.16400,
,,,66.080000000000,   0.15200,
,,,66.120000000000,   0.12400,
,,,66.160000000000,   0.13600,
,,,66.200000000000,   0.15200,
,,,66.240000000000,   0.19600,
,,,66.280000000000,   0.13200,
,,,66.320000000000,   0.12000,
,,,66.360000000000,   0.16000,
,,,66.400000000000,   0.16000,
,,,66.440000000000,   0.13200,
,,,66.480000000000,   0.13200,
,,,66.520000000000,   0.14800,
,,,66.560000000000,   0.16000,
,,,66.600000000000,   0.12800,
,,,66.640000000000,   0.13600,
,,,66.680000000000,   0.15600,
,,,66.720000000000,   0.16000,
,,,66.760000000000,   0.14800,
,,,66.800000000000,   0.18000,
,,,66.840000000000,   0.15600,
,,,66.880000000000,   0.13600,
,,,66.920000000000,   0.13600,
,,,66.960000000000,   0.15600,
,,,67.000000000000,   0.15200,
,,,67.040000000000,   0.12400,
,,,67.080000000000,   0.13200,
,,,67.120000000000,   0.14400,
,,,67.160000000000,   0.14800,
,,,67.200000000000,   0.12800,
,,,67.240000000000,   0.12000,
,,,67.280000000000,   0.15600,
,,,67.320000000000,   0.14800,
,,,67.360000000000,   0.12000,
,,,67.400000000000,   0.16400,
,,,67.440000000000,   0.15600,
,,,67.480000000000,   0.16000,
,,,67.520000000000,   0.12400,
,,,67.560000000000,   0.14400,
,,,67.600000000000,   0.17200,
,,,67.640000000000,   0.12800,
,,,67.680000000000,   0.14000,
,,,67.720000000000,   0.15200,
,,,67.760000000000,   0.15200,
,,,67.800000000000,   0.12400,
,,,67.840000000000,   0.13200,
,,,67.880000000000,   0.14800,
,,,67.920000000000,   0.15200,
,,,67.960000000000,   0.14400,
,,,68.000000000000,   0.12000,
,,,68.040000000000,   0.15600,
,,,68.080000000000,   0.14800,
,,,68.120000000000,   0.12800,
,,,68.160000000000,   0.14800,
,,,68.200000000000,   0.16000,
,,,68.240000000000,   0.13600,
,,,68.280000000000,   0.13600,
,,,68.320000000000,   0.16800,
,,,68.360000000000,   0.15600,
,,,68.400000000000,   0.13600,
,,,68.440000000000,   0.12800,
,,,68.480000000000,   0.14000,
,,,68.520000000000,   0.14400,
,,,68.560000000000,   0.22000,
,,,68.600000000000,   0.12800,
,,,68.640000000000,   0.15600,
,,,68.680000000000,   0.16000,
,,,68.720000000000,   0.14400,
,,,68.760000000000,   0.14400,
,,,68.800000000000,   0.16000,
,,,68.840000000000,   0.16000,
,,,68.880000000000,   0.17600,
,,,68.920000000000,   0.14800,
,,,68.960000000000,   0.14800,
,,,69.000000000000,   0.13200,
,,,69.040000000000,   0.12800,
,,,69.080000000000,   0.15600,
,,,69.120000000000,   0.14800,
,,,69.160000000000,   0.12400,
,,,69.200000000000,   0.12000,
,,,69.240000000000,   0.16000,
,,,69.280000000000,   0.16800,
,,,69.320000000000,   0.12800,
,,,69.360000000000,   0.12000,
,,,69.400000000000,   0.30000,
,,,69.440000000000,   0.15200,
,,,69.480000000000,   0.13600,
,,,69.520000000000,   0.11600,
,,,69.560000000000,   0.16000,
,,,69.600000000000,   0.15200,
,,,69.640000000000,   0.13200,
,,,69.680000000000,   0.15600,
,,,69.720000000000,   0.14400,
,,,69.760000000000,   0.12400,
,,,69.800000000000,   0.12400,
,,,69.840000000000,   0.14400,
,,,69.880000000000,   0.15200,
,,,69.920000000000,   0.20000,
,,,69.960000000000,   0.12000,
,,,70.000000000000,   0.16000,
,,,70.040000000000,   0.15600,
,,,70.080000000000,   0.12400,
,,,70.120000000000,   0.12800,
,,,70.160000000000,   0.15200,
,,,70.200000000000,   0.14400,
,,,70.240000000000,   0.14000,
,,,70.280000000000,   0.14000,
,,,70.320000000000,   0.15600,
,,,70.360000000000,   0.16000,
,,,70.400000000000,   0.12800,
,,,70.440000000000,   0.24800,
,,,70.480000000000,   0.14400,
,,,70.520000000000,   0.12800,
,,,70.560000000000,   0.13200,
,,,70.600000000000,   0.14400,
,,,70.640000000000,   0.15200,
,,,70.680000000000,   0.12000,
,,,70.720000000000,   0.12800,
,,,70.760000000000,   0.27200,
,,,70.800000000000,   0.15200,
,,,70.840000000000,   0.13200,
,,,70.880000000000,   0.12400,
,,,70.920000000000,   0.16000,
,,,70.960000000000,   0.26000,
,,,71.000000000000,   0.12000,
,,,71.040000000000,   0.15600,
,,,71.080000000000,   0.16000,
,,,71.120000000000,   0.12800,
,,,71.160000000000,   0.13200,
,,,71.200000000000,   0.14800,
,,,71.240000000000,   0.15200,
,,,71.280000000000,   0.27200,
,,,71.320000000000,   0.13200,
,,,71.360000000000,   0.16000,
,,,71.400000000000,   0.15200,
,,,71.440000000000,   0.13200,
,,,71.480000000000,   0.13600,
,,,71.520000000000,   0.15600,
,,,71.560000000000,   0.15200,
,,,71.600000000000,   0.25200,
,,,71.640000000000,   0.14000,
,,,71.680000000000,   0.15200,
,,,71.720000000000,   0.15200,
,,,71.760000000000,   0.13200,
,,,71.800000000000,   0.16400,
,,,71.840000000000,   0.16000,
,,,71.880000000000,   0.14400,
,,,71.920000000000,   0.18800,
,,,71.960000000000,   0.15200,
,,,72.000000000000,   0.15600,
,,,72.040000000000,   0.12800,
,,,72.080000000000,   0.12000,
,,,72.120000000000,   0.15600,
,,,72.160000000000,   0.16400,
,,,72.200000000000,   0.12400,
,,,72.240000000000,   0.16400,
,,,72.280000000000,   0.15600,
,,,72.320000000000,   0.15600,
,,,72.360000000000,   0.13200,
,,,72.400000000000,   0.12800,
,,,72.440000000000,   0.15600,
,,,72.480000000000,   0.15200,
,,,72.520000000000,   0.11600,
,,,72.560000000000,   0.28800,
,,,72.600000000000,   0.15600,
,,,72.640000000000,   0.12800,
,,,72.680000000000,   0.12800,
,,,72.720000000000,   0.14800,
,,,72.760000000000,   0.15600,
,,,72.800000000000,   0.12400,
,,,72.840000000000,   0.12400,
,,,72.880000000000,   0.16000,
,,,72.920000000000,   0.15200,
,,,72.960000000000,   0.13600,
,,,73.000000000000,   0.13200,
,,,73.040000000000,   0.14800,
,,,73.080000000000,   0.14800,
,,,73.120000000000,   0.12800,
,,,73.160000000000,   0.13600,
,,,73.200000000000,   0.15600,
,,,73.240000000000,   0.14800,
,,,73.280000000000,   0.12800,
,,,73.320000000000,   0.15600,
,,,73.360000000000,   0.16000,
,,,73.400000000000,   0.13200,
,,,73.440000000000,   0.12400,
,,,73.480000000000,   0.15600,
,,,73.520000000000,   0.14800,
,,,73.560000000000,   0.13200,
,,,73.600000000000,   0.12000,
,,,73.640000000000,   0.16800,
,,,73.680000000000,   0.15200,
,,,73.720000000000,   0.15200,
,,,73.760000000000,   0.12000,
,,,73.800000000000,   0.14400,
,,,73.840000000000,   0.16000,
,,,73.880000000000,   0.13600,
,,,73.920000000000,   0.16000,
,,,73.960000000000,   0.16400,
,,,74.000000000000,   0.12800,
,,,74.040000000000,   0.12800,
,,,74.080000000000,   0.15600,
,,,74.120000000000,   0.14000,
,,,74.160000000000,   0.13200,
,,,74.200000000000,   0.12400,
,,,74.240000000000,   0.21200,
,,,74.280000000000,   0.14800,
,,,74.320000000000,   0.12400,
,,,74.360000000000,   0.12000,
,,,74.400000000000,   0.16000,
,,,74.440000000000,   0.14800,
,,,74.480000000000,   0.13600,
,,,74.520000000000,   0.12800,
,,,74.560000000000,   0.26800,
,,,74.600000000000,   0.14800,
,,,74.640000000000,   0.12000,
,,,74.680000000000,   0.17200,
,,,74.720000000000,   0.16000,
,,,74.760000000000,   0.14000,
,,,74.800000000000,   0.13600,
,,,74.840000000000,   0.16400,
,,,74.880000000000,   0.20400,
,,,74.920000000000,   0.12800,
,,,74.960000000000,   0.12400,
,,,75.000000000000,   0.16000,
,,,75.040000000000,   0.15600,
,,,75.080000000000,   0.13600,
,,,75.120000000000,   0.14800,
,,,75.160000000000,   0.15600,
,,,75.200000000000,   0.15200,
,,,75.240000000000,   0.13600,
,,,75.280000000000,   0.12400,
,,,75.320000000000,   0.14000,
,,,75.360000000000,   0.15600,
,,,75.400000000000,   0.13200,
,,,75.440000000000,   0.16000,
,,,75.480000000000,   0.15600,
,,,75.520000000000,   0.20400,
,,,75.560000000000,   0.13600,
,,,75.600000000000,   0.15200,
,,,75.640000000000,   0.15200,
,,,75.680000000000,   0.14400,
,,,75.720000000000,   0.12800,
,,,75.760000000000,   0.15600,
,,,75.800000000000,   0.14800,
,,,75.840000000000,   0.22000,
,,,75.880000000000,   0.12400,
,,,75.920000000000,   0.15600,
,,,75.960000000000,   0.14800,
,,,76.000000000000,   0.14000,
,,,76.040000000000,   0.14400,
,,,76.080000000000,   0.16000,
,,,76.120000000000,   0.16000,
,,,76.160000000000,   0.13200,
,,,76.200000000000,   0.15600,
,,,76.240000000000,   0.15200,
,,,76.280000000000,   0.12800,
,,,76.320000000000,   0.12000,
,,,76.360000000000,   0.14800,
,,,76.400000000000,   0.16000,
,,,76.440000000000,   0.13200,
,,,76.480000000000,   0.12400,
,,,76.520000000000,   0.16000,
,,,76.560000000000,   0.15200,
,,,76.600000000000,   0.12800,
,,,76.640000000000,   0.13200,
,,,76.680000000000,   0.16000,
,,,76.720000000000,   0.16000,
,,,76.760000000000,   0.12800,
,,,76.800000000000,   0.16000,
,,,76.840000000000,   0.15200,
,,,76.880000000000,   0.12000,
,,,76.920000000000,   0.12400,
,,,76.960000000000,   0.16000,
,,,77.000000000000,   0.15600,
,,,77.040000000000,   0.13600,
,,,77.080000000000,   0.13600,
,,,77.120000000000,   0.16000,
,,,77.160000000000,   0.15600,
,,,77.200000000000,   0.12800,
,,,77.240000000000,   0.13200,
,,,77.280000000000,   0.16000,
,,,77.320000000000,   0.15600,
,,,77.360000000000,   0.13200,
,,,77.400000000000,   0.12800,
,,,77.440000000000,   0.15600,
,,,77.480000000000,   0.15600,
,,,77.520000000000,   0.13200,
,,,77.560000000000,   0.20400,
,,,77.600000000000,   0.16400,
,,,77.640000000000,   0.13200,
,,,77.680000000000,   0.14800,
,,,77.720000000000,   0.15600,
,,,77.760000000000,   0.16000,
,,,77.800000000000,   0.13600,
,,,77.840000000000,   0.14000,
,,,77.880000000000,   0.16000,
,,,77.920000000000,   0.15600,
,,,77.960000000000,   0.13600,
,,,78.000000000000,   0.14400,
,,,78.040000000000,   0.15600,
,,,78.080000000000,   0.14800,
,,,78.120000000000,   0.12800,
,,,78.160000000000,   0.14000,
,,,78.200000000000,   0.16000,
,,,78.240000000000,   0.16000,
,,,78.280000000000,   0.12400,
,,,78.320000000000,   0.16400,
,,,78.360000000000,   0.16400,
,,,78.400000000000,   0.13200,
,,,78.440000000000,   0.12800,
,,,78.480000000000,   0.16000,
,,,78.520000000000,   0.15600,
,,,78.560000000000,   0.12800,
,,,78.600000000000,   0.13600,
,,,78.640000000000,   0.16000,
,,,78.680000000000,   0.16400,
,,,78.720000000000,   0.12400,
,,,78.760000000000,   0.14400,
,,,78.800000000000,   0.16000,
,,,78.840000000000,   0.15600,
,,,78.880000000000,   0.13600,
,,,78.920000000000,   0.15200,
,,,78.960000000000,   0.15600,
,,,79.000000000000,   0.13200,
,,,79.040000000000,   0.12400,
,,,79.080000000000,   0.15600,
,,,79.120000000000,   0.16000,
,,,79.160000000000,   0.13200,
,,,79.200000000000,   0.13200,
,,,79.240000000000,   0.15600,
,,,79.280000000000,   0.16000,
,,,79.320000000000,   0.11200,
,,,79.360000000000,   0.13200,
,,,79.400000000000,   0.15600,
,,,79.440000000000,   0.16400,
,,,79.480000000000,   0.13600,
,,,79.520000000000,   0.14000,
,,,79.560000000000,   0.16000,
,,,79.600000000000,   0.15200,
,,,79.640000000000,   0.12800,
,,,79.680000000000,   0.17600,
,,,79.720000000000,   0.15600,
,,,79.760000000000,   0.14000,
,,,79.800000000000,   0.12800,
,,,79.840000000000,   0.15200,
,,,79.880000000000,   0.17200,
,,,79.920000000000,   0.12800,
,,,79.960000000000,   0.13600,
,,,80.000000000000,   0.15600,
,,,80.040000000000,   0.16000,
,,,80.080000000000,   0.13600,
,,,80.120000000000,   0.12800,
,,,80.160000000000,   0.15600,
,,,80.200000000000,   0.14800,
,,,80.240000000000,   0.13200,
,,,80.280000000000,   0.12800,
,,,80.320000000000,   0.14800,
,,,80.360000000000,   0.14800,
,,,80.400000000000,   0.13600,
,,,80.440000000000,   0.16000,
,,,80.480000000000,   0.16400,
,,,80.520000000000,   0.13600,
,,,80.560000000000,   0.12400,
,,,80.600000000000,   0.15200,
,,,80.640000000000,   0.15600,
,,,80.680000000000,   0.12400,
,,,80.720000000000,   0.12800,
,,,80.760000000000,   0.16800,
,,,80.800000000000,   0.16000,
,,,80.840000000000,   0.12800,
,,,80.880000000000,   0.12800,
,,,80.920000000000,   0.15200,
,,,80.960000000000,   0.16400,
,,,81.000000000000,   0.13200,
,,,81.040000000000,   0.13600,
,,,81.080000000000,   0.16000,
,,,81.120000000000,   0.16000,
,,,81.160000000000,   0.13200,
,,,81.200000000000,   0.15600,
,,,81.240000000000,   0.16400,
,,,81.280000000000,   0.13600,
,,,81.320000000000,   0.13200,
,,,81.360000000000,   0.16400,
,,,81.400000000000,   0.14800,
,,,81.440000000000,   0.12800,
,,,81.480000000000,   0.14800,
,,,81.520000000000,   0.16400,
,,,81.560000000000,   0.16400,
,,,81.600000000000,   0.12800,
,,,81.640000000000,   0.13600,
,,,81.680000000000,   0.16800,
,,,81.720000000000,   0.15200,
,,,81.760000000000,   0.13200,
,,,81.800000000000,   0.16800,
,,,81.840000000000,   0.15200,
,,,81.880000000000,   0.13600,
,,,81.920000000000,   0.14400,
,,,81.960000000000,   0.15600,
,,,82.000000000000,   0.16800,
,,,82.040000000000,   0.13200,
,,,82.080000000000,   0.13600,
,,,82.120000000000,   0.15200,
,,,82.160000000000,   0.15200,
,,,82.200000000000,   0.13600,
,,,82.240000000000,   0.13200,
,,,82.280000000000,   0.15600,
,,,82.320000000000,   0.14800,
,,,82.360000000000,   0.13200,
,,,82.400000000000,   0.12800,
,,,82.440000000000,   0.16000,
,,,82.480000000000,   0.15200,
,,,82.520000000000,   0.12800,
,,,82.560000000000,   0.17600,
,,,82.600000000000,   0.14800,
,,,82.640000000000,   0.13600,
,,,82.680000000000,   0.13200,
,,,82.720000000000,   0.15200,
,,,82.760000000000,   0.14800,
,,,82.800000000000,   0.12000,
,,,82.840000000000,   0.13600,
,,,82.880000000000,   0.16400,
,,,82.920000000000,   0.15600,
,,,82.960000000000,   0.13600,
,,,83.000000000000,   0.13200,
,,,83.040000000000,   0.15600,
,,,83.080000000000,   0.16000,
,,,83.120000000000,   0.14000,
,,,83.160000000000,   0.14800,
,,,83.200000000000,   0.15600,
,,,83.240000000000,   0.16400,
,,,83.280000000000,   0.14000,
,,,83.320000000000,   0.16400,
,,,83.360000000000,   0.16400,
,,,83.400000000000,   0.13600,
,,,83.440000000000,   0.12400,
,,,83.480000000000,   0.15200,
,,,83.520000000000,   0.15600,
,,,83.560000000000,   0.13200,
,,,83.600000000000,   0.12800,
,,,83.640000000000,   0.16400,
,,,83.680000000000,   0.16400,
,,,83.720000000000,   0.13600,
,,,83.760000000000,   0.13600,
,,,83.800000000000,   0.15600,
,,,83.840000000000,   0.15200,
,,,83.880000000000,   0.12800,
,,,83.920000000000,   0.14800,
,,,83.960000000000,   0.16000,
,,,84.000000000000,   0.13200,
,,,84.040000000000,   0.13600,
,,,84.080000000000,   0.15600,
,,,84.120000000000,   0.15200,
,,,84.160000000000,   0.14000,
,,,84.200000000000,   0.10400,
,,,84.240000000000,   0.00800,
,,,84.280000000000,   0.00000,