emg_value
-12
-12
-11
-3
8
17
23
25
24
27
33
36
33
24
14
7
3
0
-1
-4
-14
-28
-40
-51
-60
-66
-64
-56
-47
-35
-15
-1
4
6
7
6
7
15
25
32
38
42
44
47
45
38
27
13
2
-7
-19
-30
-37
-40
-41
-44
-46
-44
-38
-23
2
25
38
45
48
47
42
36
32
25
14
3
-2
-2
-3
-11
-24
-35
-42
-40
-31
-21
-15
-10
-4
3
8
11
13
19
30
39
42
41
37
32
25
17
10
2
-5
-15
-25
-33
-42
-48
-48
-41
-33
-24
-16
-10
-8
-7
1
17
31
40
49
54
52
42
32
24
9
-14
-38
-58
-75
-86
-90
-86
-71
-50
-26
-5
5
9
16
29
42
48
45
41
42
50
50
38
25
20
19
13
5
0
0
-4
-9
-12
-14
-16
-18
-18
-15
-10
-6
-3
-3
-3
-2
1
3
3
3
7
8
9
11
14
13
14
15
13
9
7
2
-7
-19
-27
-33
-37
-46
-55
-58
-48
-25
4
21
23
20
24
35
39
33
25
14
-1
-16
-20
-14
-9
-4
3
3
-6
-17
-19
-10
0
4
9
16
20
24
26
25
22
23
25
22
10
-5
-17
-20
-18
-15
-9
-3
-4
-13
-22
-27
-29
-27
-20
-12
-2
7
14
17
18
25
32
32
26
17
6
-5
-11
-7
0
7
10
7
-1
-6
-8
-12
-19
-26
-29
-25
-18
-15
-12
-4
6
16
22
23
22
21
20
17
9
0
-4
-3
-3
-4
-2
1
2
-2
-10
-18
-22
-24
-21
-17
-17
-23
-34
-46
-49
-37
-12
21
47
60
63
58
48
38
32
25
14
0
-16
-28
-32
-32
-34
-35
-33
-25
-14
-2
5
12
18
26
36
43
48
51
54
55
48
32
12
-10
-34
-54
-68
-80
-81
-67
-48
-33
-25
-18
-10
-3
0
3
10
15
17
23
28
28
33
41
46
45
43
41
36
27
18
8
-3
-14
-20
-24
-26
-29
-30
-26
-19
-16
-15
-13
-11
-7
-3
-5
-9
-10
-7
-5
-10
-13
-7
2
11
18
22
25
24
17
10
4
0
-6
-19
-39
-52
-57
-60
-54
-34
-11
6
18
29
42
47
42
32
24
21
21
24
27
22
8
-3
-10
-14
-17
-20
-20
-15
-8
-2
2
7
12
19
27
33
35
34
34
35
34
29
22
16
10
4
0
-8
-19
-30
-40
-46
-51
-55
-54
-51
-46
-39
-33
-27
-16
-4
6
15
26
35
34
25
20
21
18
10
1
-4
-7
-8
-8
-10
-13
-19
-27
-33
-35
-33
-29
-23
-13
0
14
24
29
30
31
34
38
44
48
43
34
28
22
13
5
-1
-6
-11
-18
-24
-22
-18
-18
-23
-24
-19
-15
-21
-31
-35
-23
-5
1
-1
-6
-10
-11
-4
9
23
30
30
24
10
-5
-17
-21
-15
-10
-13
-15
-16
-22
-29
-24
0
34
59
68
68
64
59
54
45
33
22
10
-3
-13
-16
-18
-26
-37
-44
-43
-39
-34
-28
-23
-20
-15
-5
1
4
11
20
27
30
27
25
26
24
15
5
-2
-10
-16
-21
-23
-23
-22
-17
-15
-19
-23
-20
-9
2
11
17
19
16
13
12
15
20
26
31
31
26
19
10
1
-5
-14
-30
-53
-74
-85
-86
-80
-70
-54
-34
-11
14
37
50
52
48
30
5
-6
-1
7
9
1
-8
-12
-6
4
13
15
12
10
13
19
21
23
25
25
29
34
36
36
40
48
52
48
41
35
28
17
5
-3
-11
-24
-39
-51
-58
-58
-54
-50
-46
-45
-46
-49
-51
-47
-35
-17
3
19
28
29
28
25
20
16
12
12
14
14
10
4
-1
-5
-8
-5
0
10
16
14
11
13
11
3
-8
-20
-31
-43
-55
-62
-61
-48
-22
9
28
30
26
20
16
15
13
12
10
8
4
0
-2
-2
5
16
25
33
43
52
56
51
42
26
10
2
1
1
3
3
-2
-10
-15
-23
-35
-44
-50
-51
-48
-38
-27
-25
-25
-16
0
14
25
37
46
49
48
46
43
35
19
1
-13
-23
-37
-61
-82
-91
-92
-90
-89
-86
-70
-41
-9
19
38
44
46
54
68
79
77
67
60
55
48
39
34
29
19
9
2
-4
-10
-16
-18
-17
-19
-20
-18
-17
-19
-18
-12
-2
7
18
33
47
52
46
34
24
15
0
-22
-45
-63
-72
-72
-69
-69
-68
-64
-59
-50
-38
-23
-10
0
7
9
10
18
37
54
62
65
69
70
62
49
37
21
0
-18
-27
-35
-40
-38
-32
-28
-25
-20
-14
-12
-12
-12
-1
21
44
53
51
43
28
16
10
8
11
15
14
7
2
-1
-8
-18
-24
-23
-25
-30
-31
-28
-26
-22
-12
-1
10
28
48
55
47
37
29
17
0
-18
-28
-31
-27
-20
-14
-13
-18
-31
-48
-60
-69
-71
-62
-42
-15
10
26
37
52
62
62
60
58
52
46
42
38
32
24
13
0
-13
-25
-40
-50
-52
-52
-52
-51
-46
-40
-30
-10
12
25
31
38
47
52
51
45
38
31
24
17
9
2
-2
-9
-17
-24
-26
-23
-21
-20
-19
-15
-9
-3
0
1
4
10
18
24
24
22
21
18
13
9
7
3
-4
-10
-15
-19
-23
-29
-34
-38
-44
-49
-52
-52
-53
-51
-43
-27
-7
16
39
55
57
49
41
38
39
40
34
19
-3
-29
-49
-58
-57
-42
-17
5
19
28
37
46
49
42
29
18
11
3
-5
-10
-5
7
16
16
15
11
1
-13
-24
-28
-30
-36
-39
-35
-27
-14
-4
-3
-6
-5
2
12
22
32
42
48
47
40
31
20
8
-3
-15
-23
-27
-26
-26
-30
-34
-30
-22
-18
-16
-13
-10
-8
-3
1
3
8
19
33
38
34
28
24
17
8
0
-6
-15
-22
-27
-30
-30
-29
-28
-29
-31
-29
-21
-9
0
5
13
20
27
34
39
40
36
33
33
30
25
18
11
3
-2
-8
-20
-41
-61
-71
-70
-56
-33
-14
1
16
30
41
46
47
46
46
42
31
17
3
-7
-10
-10
-8
-3
2
2
-5
-18
-32
-39
-34
-25
-20
-16
-11
-4
0
5
13
21
33
39
31
19
15
22
27
21
13
8
2
-7
-16
-21
-25
-29
-33
-33
-31
-27
-21
-12
-2
8
17
19
17
17
20
20
12
4
3
8
17
22
19
9
0
-6
-15
-23
-29
-31
-32
-30
-19
-10
-7
-11
-16
-21
-22
-11
11
29
34
29
20
12
3
-1
1
8
7
1
-5
-10
-19
-30
-32
-24
-14
-9
-4
3
10
20
29
31
29
28
30
32
33
29
20
12
7
4
1
-4
-10
-14
-17
-22
-31
-40
-46
-48
-42
-30
-19
-11
-3
4
7
7
14
29
37
33
28
28
29
25
17
13
9
0
-11
-18
-22
-26
-31
-34
-33
-27
-14
0
7
12
17
22
30
40
45
48
49
37
18
5
-2
-8
-19
-33
-45
-53
-50
-34
-20
-16
-16
-23
-37
-49
-54
-55
-50
-36
-19
-1
16
37
60
73
77
75
70
61
50
37
19
0
-13
-17
-15
-14
-15
-14
-12
-12
-12
-7
-1
0
0
0
5
16
26
33
33
23
8
-3
-9
-14
-20
-28
-32
-29
-21
-14
-10
-9
-9
-7
-5
-9
-15
-18
-16
-10
-3
0
1
3
4
1
0
7
17
26
31
32
27
20
13
4
-7
-18
-23
-24
-22
-21
-19
-12
-2
6
13
16
17
18
22
24
21
19
17
14
7
1
0
0
-2
-9
-16
-22
-28
-37
-41
-38
-30
-20
-8
-1
3
7
13
22
32
40
46
45
33
13
-8
-29
-51
-66
-61
-39
-15
2
9
5
-3
-11
-16
-17
-13
-5
5
14
19
20
20
22
25
30
35
35
29
23
20
18
14
9
1
-9
-18
-21
-22
-24
-26
-23
-19
-14
-7
0
4
2
0
-6
-10
-4
6
16
23
26
25
19
11
2
-4
-10
-15
-18
-23
-30
-34
-29
-20
-11
-4
-2
-8
-16
-19
-18
-12
-3
10
26
36
38
34
30
25
19
14
11
9
3
-7
-15
-17
-16
-17
-21
-25
-28
-28
-25
-21
-11
4
19
29
34
34
29
20
13
13
15
17
17
14
6
0
-9
-18
-25
-34
-49
-58
-60
-56
-46
-31
-15
4
26
40
46
49
55
61
61
59
57
56
50
39
28
19
11
-3
-20
-32
-37
-34
-24
-17
-19
-23
-21
-17
-15
-17
-19
-14
-3
8
12
10
13
23
25
15
5
0
-3
-4
-3
-9
-19
-27
-30
-28
-27
-26
-21
-15
-13
-11
-14
-24
-28
-17
1
17
18
6
-8
-14
-4
11
22
24
21
13
-1
-20
-33
-36
-33
-37
-44
-39
-21
0
16
22
25
35
54
72
75
63
51
40
24
7
-4
-11
-16
-15
-13
-12
-13
-17
-21
-27
-32
-30
-19
-8
-3
-1
5
15
27
39
46
51
49
41
33
26
19
13
8
2
-5
-12
-19
-29
-39
-45
-45
-42
-40
-35
-28
-20
-14
-9
-6
-6
0
18
35
39
32
14
-7
-23
-26
-19
-6
3
1
-8
-18
-27
-35
-39
-38
-37
-32
-21
-8
10
26
34
37
41
48
54
54
50
44
35
26
19
16
14
10
5
-1
-10
-20
-26
-25
-24
-27
-32
-33
-29
-24
-24
-23
-16
-4
8
22
28
27
23
18
11
4
3
4
4
3
0
-5
-12
-17
-19
-20
-18
-14
-8
-2
-1
-6
-11
-6
10
28
36
34
27
26
27
22
14
6
-1
-10
-14
-14
-13
-15
-16
-15
-14
-14
-11
-7
-8
-10
-6
-1
-1
-1
0
5
7
2
-3
-4
1
10
12
7
-2
-8
-12
-16
-19
-19
-16
-14
-15
-13
-8
-1
8
16
19
21
28
39
48
50
45
37
29
18
3
-9
-18
-23
-25
-23
-21
-25
-35
-43
-44
-38
-26
-14
-7
-2
3
13
24
31
35
37
34
25
17
14
13
7
0
-6
-11
-11
-9
-10
-16
-27
-35
-38
-40
-39
-30
-17
-5
3
9
17
27
39
50
54
51
44
34
22
8
-2
-12
-22
-26
-29
-36
-45
-49
-45
-41
-41
-37
-31
-25
-18
-8
3
17
28
35
40
42
43
46
46
41
32
24
16
8
0
-4
-8
-15
-22
-25
-25
2
9
16
27
41
53
59
64
73
87
93
84
63
33
-2
-31
-47
-53
-55
-54
-53
-53
-49
-39
-23
-11
-5
-2
2
8
10
9
9
9
12
18
27
37
46
51
53
50
45
36
22
7
-6
-15
-27
-45
-64
-75
-69
-51
-32
-20
-12
-7
-1
6
11
10
8
7
3
0
2
7
15
24
27
24
15
3
-6
-11
-14
-20
-24
-25
-24
-23
-18
-8
1
4
1
-2
0
7
12
15
18
23
27
29
25
18
16
12
0
-10
-13
-18
-31
-48
-62
-67
-60
-43
-25
-12
-1
13
29
38
40
41
43
42
37
32
29
26
21
15
10
5
0
-5
-11
-17
-21
-19
-11
-4
1
7
5
-5
-18
-28
-34
-39
-43
-43
-35
-22
-2
16
24
24
25
29
30
24
17
12
0
-15
-26
-29
-28
-23
-14
-4
1
9
20
29
35
41
48
53
56
54
48
38
17
-8
-23
-29
-35
-48
-69
-89
-98
-96
-81
-54
-28
-12
-3
4
13
22
31
40
50
58
59
53
50
46
41
34
23
9
-3
-8
-8
-10
-16
-22
-25
-23
-15
-4
5
11
13
15
19
17
5
-9
-20
-30
-35
-31
-19
-5
1
1
1
0
-2
-4
-5
-6
-9
-10
-8
-7
-6
-6
-8
-9
-5
4
12
16
22
29
33
27
19
14
13
11
4
-3
-9
-15
-20
-26
-36
-45
-42
-28
-15
-9
-8
-7
-3
6
19
31
42
51
58
61
57
46
30
12
-8
-27
-39
-41
-35
-27
-27
-34
-41
-40
-31
-21
-14
-9
-7
-9
-9
-2
5
11
15
21
31
43
47
41
30
20
12
9
11
13
5
-18
-47
-64
-67
-60
-49
-39
-31
-23
-6
24
54
69
75
80
81
71
50
20
-18
-62
-91
-90
-64
-33
-16
-14
-19
-18
-12
-2
5
10
15
21
30
32
24
17
12
8
10
22
36
48
56
55
43
24
1
-26
-51
-64
-67
-63
-54
-50
-52
-53
-48
-33
-14
3
19
35
52
63
59
49
43
42
40
40
42
35
15
-7
-23
-33
-38
-40
-39
-36
-33
-31
-25
-17
-13
-13
-15
-13
-3
10
22
33
47
54
54
47
30
7
-10
-12
-5
3
7
3
-2
-3
-5
-17
-31
-41
-51
-63
-81
-89
-76
-54
-31
-12
0
5
13
27
36
33
23
19
28
43
54
53
43
30
13
0
-3
3
12
20
21
13
1
-9
-11
0
10
12
17
27
29
13
-8
-21
-25
-19
-7
0
-3
-16
-27
-30
-31
-35
-35
-33
-35
-33
-19
0
13
18
20
22
24
26
33
46
54
52
40
26
13
2
-1
-2
-8
-18
-34
-52
-65
-70
-68
-58
-41
-29
-17
0
18
31
34
34
36
42
50
51
43
33
28
29
30
29
24
15
3
-13
-31
-51
-71
-90
-101
-95
-77
-56
-35
-20
-10
4
25
47
69
85
90
88
83
71
53
33
16
6
-1
-7
-15
-27
-38
-41
-36
-28
-19
-13
-15
-19
-20
-18
-12
-8
-6
-3
3
8
7
4
6
12
20
28
33
33
24
12
2
-10
-29
-54
-78
-91
-94
-88
-63
-27
3
22
36
48
58
61
56
51
49
51
47
34
22
12
-3
-17
-22
-22
-22
-25
-24
-18
-12
-9
-9
-15
-24
-34
-40
-37
-29
-12
13
39
54
56
48
37
27
15
6
2
2
6
10
9
2
-2
-14
-39
-65
-75
-66
-43
-15
3
14
23
29
34
36
35
33
37
37
28
19
11
0
-12
-11
-3
-5
-27
-62
-90
-93
-73
-37
5
40
60
70
76
85
99
108
109
98
69
25
-19
-58
-88
-113
-130
-134
-120
-90
-58
-40
-33
-23
-5
13
21
19
14
8
8
20
41
64
83
85
64
33
7
-10
-21
-22
-13
0
11
14
8
-9
-28
-41
-47
-46
-34
-18
-4
4
6
-1
-16
-29
-29
-15
1
17
26
23
15
13
23
45
71
81
71
51
19
-22
-47
-44
-24
8
41
61
65
58
37
1
-35
-66
-97
-135
-169
-175
-144
-89
-18
54
107
128
120
88
38
-2
-25
-36
-42
-46
-47
-40
-25
-13
-12
-13
-7
4
20
30
25
10
8
31
66
88
89
81
77
89
112
134
137
98
23
-42
-71
-79
-79
-71
-54
-34
-15
-5
-16
-43
-72
-92
-106
-117
-123
-125
-124
-115
-85
-41
-7
18
43
50
30
-5
-40
-53
-27
33
109
192
271
307
278
200
109
40
5
-15
-42
-80
-108
-106
-78
-52
-42
-39
-20
6
10
-46
-156
-244
-271
-256
-203
-113
-17
47
78
97
119
133
134
123
103
77
33
-35
-124
-209
-252
-218
-120
-4
119
254
371
457
518
534
468
312
114
-54
-151
-180
-176
-170
-175
-205
-250
-285
-298
-273
-196
-106
-20
74
120
50
-78
-165
-184
-168
-147
-115
-65
8
128
256
300
262
221
220
227
194
138
100
71
25
-35
-93
-138
-152
-139
-141
-191
-302
-447
-543
-537
-474
-389
-229
30
305
527
683
735
654
496
344
235
156
87
37
10
-9
-44
-105
-167
-207
-245
-318
-395
-392
-315
-267
-279
-266
-182
-57
70
185
289
370
391
303
136
11
-9
23
56
92
149
203
221
165
10
-184
-314
-323
-235
-124
-56
-18
54
198
353
396
303
153
-13
-178
-255
-217
-136
-64
-15
4
13
34
43
0
-81
-158
-216
-236
-205
-149
-100
-68
-43
-5
44
80
87
66
38
31
68
127
139
86
20
-24
-55
-78
-64
14
129
199
178
106
35
-20
-47
-22
22
19
-61
-151
-155
-71
37
99
74
13
-1
15
13
6
34
94
149
170
157
130
102
50
-51
-178
-270
-302
-281
-225
-134
-17
75
122
138
122
83
44
18
7
4
8
35
70
71
34
5
7
14
-15
-93
-164
-166
-115
-71
-81
-153
-232
-264
-240
-183
-117
-50
33
192
396
476
386
256
176
138
106
62
17
-13
-24
-19
-17
-34
-80
-162
-256
-303
-270
-154
9
128
148
111
84
79
46
-30
-97
-43
160
333
312
141
-89
-315
-419
-355
-211
-47
136
322
506
659
632
359
42
-119
-135
-130
-202
-314
-398
-431
-372
-220
-81
-4
62
137
152
66
-56
-133
-146
-108
-39
27
42
-13
-87
-141
-196
-243
-232
-164
-89
-50
-31
20
110
187
235
283
334
364
371
359
309
228
164
133
103
21
-122
-250
-294
-275
-239
-204
-159
-96
-38
-65
-214
-383
-484
-507
-378
-84
191
350
488
732
1002
1014
728
363
86
-72
-160
-222
-256
-260
-252
-239
-197
-123
-80
-113
-180
-234
-285
-336
-345
-294
-213
-121
-11
108
200
231
182
83
3
-26
-32
-53
-92
-93
-42
10
40
71
135
215
250
180
37
-54
-49
-27
-51
-56
59
243
345
294
142
6
-61
-94
-130
-180
-228
-247
-241
-301
-453
-539
-468
-297
-48
294
683
1010
1137
949
534
165
-23
-87
-108
-152
-228
-294
-313
-285
-239
-198
-147
-68
17
79
104
72
-26
-147
-215
-218
-194
-197
-248
-288
-276
-226
-137
-8
122
221
257
197
66
-35
-57
-42
-27
24
139
248
259
168
40
-72
-149
-174
-125
-10
123
234
306
314
228
78
-47
-99
-86
-42
12
72
133
158
112
17
-76
-150
-202
-228
-226
-203
-173
-160
-175
-181
-150
-89
-23
34
117
254
408
486
434
309
175
21
-133
-208
-188
-132
-60
44
146
186
137
11
-131
-216
-240
-245
-216
-116
25
129
151
118
87
64
24
-27
-68
-84
-78
-62
-45
-33
-33
-58
-104
-143
-142
-102
-65
-36
18
102
148
118
55
45
110
159
130
51
-40
-111
-128
-106
-79
-61
-29
38
116
154
124
48
-18
-44
-49
-61
-79
-84
-73
-61
-59
-49
-4
61
104
85
8
-54
-47
-4
1
-30
-39
2
62
133
219
284
294
245
130
-17
-109
-121
-102
-93
-97
-100
-97
-93
-98
-108
-109
-93
-63
-16
30
25
-42
-122
-149
-109
-41
32
139
289
397
357
216
84
-4
-64
-95
-103
-102
-96
-77
-50
-25
-15
-39
-87
-102
-69
-26
-7
-21
-39
-33
-13
-10
-22
-14
27
69
85
79
65
42
15
1
-2
-10
-18
-21
-45
-97
-141
-156
-151
-110
1
141
215
181
69
-64
-156
-164
-97
10
114
182
219
248
251
193
100
30
-1
-15
-31
-49
-62
-85
-121
-137
-119
-93
-94
-126
-133
-88
-30
-14
-33
-15
76
202
269
229
146
86
38
-22
-81
-111
-110
-96
-87
-91
-101
-108
-116
-129
-134
-114
-60
12
80
126
127
83
49
98
198
218
134
25
-54
-97
-136
-185
-221
-216
-159
-63
47
167
311
446
493
439
328
182
32
-80
-153
-212
-280
-341
-354
-321
-274
-207
-97
24
106
134
116
64
-3
-71
-133
-177
-180
-136
-71
-6
92
237
326
287
169
53
-11
-31
-27
-11
20
58
69
41
-1
-34
-52
-59
-61
-62
-47
-12
18
30
30
33
35
19
-32
-118
-193
-206
-155
-70
76
250
274
101
-108
-211
-181
-76
51
196
346
422
352
193
54
-22
-57
-79
-97
-110
-111
-102
-88
-67
-41
-34
-68
-137
-205
-235
-205
-134
-69
-10
69
154
195
167
96
29
-22
-69
-102
-105
-75
-29
11
37
61
85
88
70
58
54
29
-16
-53
-59
-43
-21
9
64
114
118
83
42
7
-14
-19
-11
1
10
6
-12
-42
-65
-63
-35
2
34
50
49
34
11
-11
-27
-37
-40
-38
-30
-19
-19
-37
-67
-99
-121
-114
-65
16
96
132
113
77
61
72
80
63
36
20
15
15
14
6
-4
-12
-22
-36
-48
-50
-47
-40
-34
-32
-33
-36
-37
-28
-11
2
11
18
28
33
33
31
30
25
18
12
9
4
-3
-10
-15
-18
-22
-28
-31
-30
-29
-27
-23
-16
-8
-2
2
9
18
24
28
31
31
28
26
25
25
23
16
7
1
-2
-10
-20
-25
-23
-20
-19
-19
-17
-9
7
28
40
39
34
32
33
30
22
14
3
-10
-18
-14
-9
-12
-30
-52
-72
-82
-74
-54
-45
-48
-45
-28
-3
21
41
51
52
47
41
36
24
3
-16
-25
-25
-25
-20
-9
3
12
15
11
1
-10
-15
-12
-1
7
10
11
15
24
31
38
48
55
57
53
45
35
27
21
15
8
0
-12
-24
-34
-41
-44
-44
-39
-33
-28
-25
-20
-17
-15
-10
-5
0
7
13
15
14
17
23
24
16
8
8
13
11
4
-1
-11
-27
-39
-41
-48
-67
-79
-66
-39
-20
-14
-16
-22
-20
-7
8
21
32
36
40
51
67
76
67
44
11
-25
-50
-55
-48
-44
-41
-37
-29
-15
1
13
22
27
35
54
74
84
80
70
57
41
25
16
14
12
6
3
0
-4
-11
-19
-27
-37
-43
-43
-42
-43
-47
-50
-46
-31
-12
7
24
31
27
16
5
0
2
12
17
12
3
-6
-20
-36
-49
-54
-53
-52
-53
-44
-20
6
24
33
39
51
69
81
79
68
57
48
35
18
1
-13
-29
-42
-47
-49
-53
-60
-64
-63
-63
-58
-43
-24
-1
20
34
41
40
37
38
47
58
63
62
58
50
39
26
10
-3
-22
-54
-85
-92
-75
-47
-22
-11
-10
-11
-10
-2
7
16
27
36
43
46
43
38
36
31
24
15
5
-5
-10
-9
-13
-20
-24
-24
-24
-22
-20
-15
-8
-4
-4
-5
-4
-2
2
12
20
21
18
14
14
23
38
55
62
51
29
-2
-47
-92
-127
-156
-183
-207
-202
-156
-88
-17
45
83
98
107
116
127
131
124
110
90
69
55
44
25
-5
-44
-79
-95
-90
-63
-28
-8
-3
-2
5
21
35
40
38
35
33
33
32
24
14
9
8
9
8
5
-1
-9
-12
-12
-16
-24
-27
-26
-22
-22
-25
-24
-20
-14
-6
4
19
34
49
62
68
66
57
42
19
-10
-38
-62
-84
-93
-85
-77
-78
-82
-87
-84
-72
-53
-35
-22
-11
0
12
27
43
56
67
79
87
84
67
45
28
25
34
44
46
42
31
15
3
-5
-17
-32
-50
-63
-61
-48
-36
-30
-24
-9
14
34
40
36
33
31
30
27
21
14
8
6
3
-4
-15
-20
-18
-9
-2
-3
-7
-12
-9
2
13
17
13
4
-8
-19
-24
-19
-7
0
1
-2
-11
-19
-21
-17
-14
-14
-9
-2
1
0
-4
-13
-25
-35
-38
-35
-27
-16
-4
6
19
33
41
44
44
42
39
34
28
27
21
4
-17
-34
-44
-46
-42
-38
-34
-31
-19
5
26
37
42
49
53
46
37
31
29
26
20
12
0
-16
-30
-36
-39
-36
-24
-8
-3
-10
-16
-19
-31
-52
-73
-87
-80
-46
-1
30
45
51
49
44
40
39
38
38
32
20
7
-10
-37
-56
-58
-53
-51
-50
-41
-22
0
23
40
50
53
54
55
54
47
40
38
39
35
28
20
11
4
-1
-10
-20
-27
-31
-33
-34
-32
-26
-16
-3
9
17
19
18
20
26
25
15
-3
-31
-48
-48
-35
-19
-9
-9
-10
-8
-10
-16
-23
-27
-34
-42
-42
-31
-16
-2
9
18
27
36
44
45
41
34
28
25
23
17
7
-1
-6
-6
-6
-13
-20
-20
-14
-8
-5
-1
3
8
13
15
11
12
21
34
39
39
38
33
22
10
0
-12
-34
-68
-94
-108
-111
-95
-61
-32
-19
-18
-17
-2
16
31
37
40
49
58
63
64
57
43
33
33
35
30
15
-4
-21
-35
-43
-46
-43
-35
-24
-15
-11
-5
1
4
4
3
0
-4
-1
11
23
30
33
33
31
28
24
19
8
-8
-17
-18
-18
-22
-28
-34
-37
-37
-30
-21
-16
-14
-7
6
27
43
48
46
40
28
14
4
-2
-7
-8
-7
-6
-4
-4
-11
-21
-26
-22
-15
-13
-13
-13
-13
-11
-6
-6
-12
-15
-9
3
15
23
26
18
4
-1
2
4
-2
-15
-24
-25
-20
-10
0
5
6
8
12
15
11
5
-2
-10
-12
0
19
34
43
54
60
54
40
19
-8
-32
-42
-45
-41
-29
-16
-10
-8
-8
-7
-5
-1
0
-1
-8
-10
-3
9
18
19
15
15
20
25
26
21
14
7
3
-3
-17
-31
-41
-50
-58
-57
-45
-30
-15
-2
10
22
33
45
58
65
60
48
33
13
-8
-23
-31
-35
-35
-31
-29
-34
-42
-44
-41
-34
-23
-11
-1
4
8
13
15
13
12
20
31
41
46
48
48
43
34
18
-1
-22
-34
-40
-47
-54
-53
-50
-45
-37
-24
-9
5
19
29
33
36
43
55
60
53
42
33
22
9
1
0
-2
-7
-9
-8
-11
-22
-35
-42
-40
-32
-24
-25
-32
-33
-28
-23
-18
-11
0
14
32
51
60
56
47
35
19
2
-11
-21
-23
-21
-21
-20
-18
-17
-16
-14
-9
-4
0
2
-1
-7
-7
0
18
33
40
41
41
39
34
24
13
0
-14
-27
-33
-33
-29
-27
-29
-33
-29
-15
0
11
21
26
29
30
31
31
30
22
11
3
-1
-9
-14
-14
-12
-11
-14
-28
-46
-50
-41
-27
-13
-1
4
9
12
12
12
11
10
16
27
25
7
-13
-26
-24
-16
-11
-12
-13
-5
0
-1
-5
-6
-5
-4
-8
-12
-7
4
13
17
19
20
24
31
38
44
46
44
38
26
12
-3
-14
-17
-11
-3
-4
-14
-22
-23
-21
-33
-63
-82
-72
-46
-19
-1
2
-2
-3
4
17
20
13
4
-1
-5
-5
1
10
18
22
16
3
-4
-1
5
6
6
9
14
19
24
26
27
33
45
54
51
44
37
30
20
8
-1
-8
-15
-19
-20
-24
-34
-44
-47
-45
-44
-42
-39
-39
-46
-58
-67
-61
-37
-5
24
49
65
67
61
56
45
22
-1
-17
-24
-21
-12
-4
0
4
11
19
25
32
41
48
47
36
20
5
-8
-28
-54
-78
-78
-46
-11
5
8
0
-20
-43
-52
-48
-41
-33
-22
-11
-2
6
20
30
32
31
32
34
35
39
45
51
57
56
49
40
34
30
22
8
-7
-25
-47
-66
-74
-70
-53
-31
-20
-17
-12
-4
7
16
18
19
22
25
23
16
14
15
14
9
2
-5
-13
-16
-13
-11
-14
-23
-37
-50
-56
-62
-64
-54
-36
-16
5
35
68
85
82
70
57
47
42
38
29
22
20
14
0
-16
-41
-69
-80
-69
-54
-47
-50
-51
-39
-16
14
48
69
74
81
94
94
69
29
-8
-33
-45
-50
-52
-49
-40
-34
-40
-56
-69
-68
-52
-29
-12
3
23
33
29
24
28
36
46
51
47
39
40
47
47
36
20
7
-2
-11
-18
-25
-37
-44
-43
-40
-40
-46
-52
-49
-37
-22
-11
0
18
37
50
60
70
78
79
65
43
31
29
25
19
16
13
3
-12
-29
-43
-46
-36
-20
2
30
49
46
28
6
-11
-26
-46
-81
-126
-165
-171
-146
-103
-46
4
26
25
23
23
29
40
50
59
62
50
28
5
-7
-14
-19
-11
9
36
55
54
42
36
50
79
90
71
37
-5
-42
-50
-26
6
25
23
12
6
4
-1
-12
-29
-61
-97
-110
-90
-53
-20
2
16
27
30
26
22
24
23
10
-2
4
40
82
92
57
2
-45
-70
-76
-71
-62
-41
-14
0
-4
-9
-11
-17
-27
-32
-29
-17
4
24
35
36
21
-1
-15
-16
-13
-16
-30
-52
-76
-87
-72
-43
-25
-25
-26
-11
25
72
115
149
173
186
177
146
107
60
7
-32
-58
-78
-92
-97
-97
-97
-88
-58
0
53
80
78
54
13
-27
-61
-84
-93
-80
-49
-18
0
6
20
44
68
86
97
92
69
50
50
49
27
-12
-54
-90
-115
-135
-137
-104
-56
-37
-57
-76
-63
-11
67
124
131
103
70
55
59
59
34
-5
-41
-53
-36
-8
24
73
127
160
152
107
59
27
0
-45
-100
-144
-158
-139
-94
-38
-1
-4
-27
-36
-54
-125
-227
-293
-272
-152
4
102
131
142
174
219
236
212
167
114
67
31
-1
-40
-87
-130
-140
-118
-94
-76
-59
-40
-12
39
96
109
77
52
28
-41
-122
-149
-112
-33
49
100
118
121
99
40
-23
-57
-70
-65
-25
45
127
204
247
224
132
-6
-152
-243
-248
-191
-117
-53
-17
6
44
85
89
38
-37
-65
-8
87
121
39
-78
-142
-143
-106
-52
5
47
55
42
38
36
25
20
33
63
108
159
188
168
105
34
-14
-41
-70
-126
-184
-224
-261
-272
-215
-119
-50
-28
-50
-116
-206
-288
-331
-302
-199
-65
51
142
252
434
645
781
760
590
378
205
108
105
130
94
-5
-113
-195
-244
-267
-281
-291
-292
-295
-318
-354
-370
-351
-319
-278
-216
-138
-21
152
325
440
479
432
330
241
179
103
11
-59
-76
-42
4
26
5
-51
-115
-158
-156
-102
-35
11
37
-15
-190
-356
-390
-324
-195
-21
150
309
448
470
313
93
-45
-105
-135
-108
-12
106
194
226
222
199
121
-45
-225
-303
-270
-174
-25
144
268
326
334
276
151
14
-87
-148
-170
-172
-184
-209
-227
-218
-179
-139
-118
-118
-131
-137
-120
-92
-74
-55
-6
82
194
272
265
187
87
-2
-63
-86
-81
-49
-3
42
85
118
122
89
9
-130
-278
-336
-276
-148
14
195
342
409
402
340
239
132
54
5
-26
-44
-46
-45
-76
-166
-267
-290
-253
-204
-131
-22
111
231
228
73
-85
-142
-132
-121
-117
-71
0
42
70
117
156
169
174
196
239
266
248
201
138
57
-27
-94
-136
-165
-189
-195
-175
-145
-141
-197
-308
-410
-444
-408
-332
-236
-100
99
341
515
510
388
297
262
222
153
79
16
-41
-85
-101
-94
-93
-114
-143
-166
-179
-170
-133
-73
11
121
212
233
208
170
92
-74
-309
-468
-481
-403
-238
28
311
530
651
630
467
259
95
-4
-61
-106
-151
-193
-229
-244
-220
-148
-39
82
148
107
9
-78
-149
-191
-178
-121
-48
37
99
84
22
-18
-30
-58
-113
-133
-78
-26
-78
-179
-196
-95
30
66
50
131
333
490
468
325
197
141
108
30
-86
-190
-248
-237
-172
-92
-22
18
3
-47
-81
-83
-67
-34
37
163
313
412
367
177
-8
-85
-73
-37
-34
-72
-125
-170
-204
-228
-230
-209
-178
-158
-158
-157
-139
-114
-104
-115
-116
-83
-59
-129
-241
-183
110
481
717
709
545
362
209
98
36
0
-21
-35
-61
-85
-75
-44
-43
-84
-122
-161
-247
-349
-371
-281
-135
3
153
336
468
455
302
85
-101
-176
-153
-100
-36
53
134
153
91
-45
-213
-315
-312
-252
-176
-89
11
120
217
253
218
164
125
92
30
-73
-173
-232
-252
-225
-145
-40
61
145
212
259
254
194
107
3
-100
-164
-179
-169
-156
-146
-125
-88
-40
5
34
70
124
119
16
-60
-32
32
62
43
15
9
13
21
39
59
64
53
21
-38
-104
-142
-143
-115
-82
-69
-51
8
76
68
-30
-121
-110
-38
0
3
22
84
246
491
646
623
484
251
-29
-231
-313
-313
-210
-31
72
34
-79
-184
-226
-213
-188
-170
-142
-86
10
135
226
221
145
72
9
-69
-142
-183
-188
-172
-143
-90
-26
1
-8
-23
-32
-39
-47
-53
-56
-57
-57
-52
-39
-11
42
91
93
55
15
-14
-34
-39
-16
62
169
202
140
63
25
13
-11
-63
-124
-182
-236
-247
-193
-94
59
253
397
445
425
324
151
16
-22
-5
37
110
194
241
202
61
-112
-215
-241
-245
-258
-266
-240
-184
-132
-98
-66
10
138
237
205
64
-59
-101
-98
-117
-195
-272
-283
-233
-139
-8
122
229
307
321
228
72
-46
-65
26
158
203
142
58
-6
-50
-81
-121
-183
-260
-317
-306
-237
-152
-1
264
510
580
476
276
76
-34
-58
-54
-58
-79
-107
-136
-158
-162
-155
-157
-167
-150
-92
-31
-1
9
37
82
99
70
31
16
30
53
69
69
39
-19
-65
-72
-64
-69
-90
-116
-123
-86
-1
105
208
331
465
450
190
-113
-266
-283
-228
-134
-28
52
77
53
28
36
53
35
-39
-139
-194
-180
-130
-80
-55
-53
-58
-55
-37
-1
42
86
128
135
91
41
19
16
25
44
63
78
85
70
25
-19
-34
-27
-36
-74
-98
-83
-39
14
59
94
118
101
24
-71
-122
-115
-83
-48
-19
12
49
82
119
161
177
155
108
48
-24
-92
-129
-123
-123
-194
-315
-399
-386
-279
-140
-13
130
304
440
457
364
250
156
60
-28
-90
-121
-113
-74
-34
-11
-6
-8
3
34
67
75
38
-31
-90
-119
-128
-132
-137
-123
-66
18
74
65
24
-8
-20
-14
5
26
36
35
30
26
20
16
18
20
17
11
5
0
-6
-9
-10
-17
-22
-16
-1
13
25
39
61
88
99
80
44
11
-13
-33
-52
-71
-84
-85
-76
-64
-53
-41
-27
-10
3
11
14
14
14
19
27
34
40
44
46
48
56
65
67
57
43
28
14
2
-9
-19
-24
-23
-21
-27
-41
-63
-88
-107
-114
-106
-86
-67
-52
-35
-15
5
24
34
40
43
42
41
38
31
21
14
13
13
13
17
21
18
6
-4
-10
-11
-7
0
-2
-12
-10
8
27
40
50
55
50
31
9
-5
-11
-15
-19
-24
-29
-31
-36
-43
-49
-49
-37
-13
8
18
20
20
19
20
22
23
30
46
61
65
61
52
41
28
19
20
25
21
7
-11
-35
-62
-77
-76
-71
-72
-72
-60
-43
-29
-13
7
28
38
38
39
40
35
13
-18
-46
-55
-39
-16
-5
-2
0
0
-3
-5
0
10
21
27
25
21
18
14
10
0
-15
-34
-44
-37
-20
-1
10
12
6
4
8
9
2
-8
-14
-19
-26
-26
-18
-8
1
12
22
29
35
40
39
29
19
11
7
15
30
38
33
24
14
3
-4
-5
-1
-6
-26
-48
-57
-52
-44
-42
-41
-33
-28
-20
-3
8
12
20
38
59
70
70
62
50
33
15
-3
-21
-33
-38
-36
-28
-24
-27
-32
-31
-20
-7
0
-3
-10
-17
-25
-33
-33
-23
-10
-1
6
22
42
56
63
62
48
29
14
6
-1
-12
-18
-19
-21
-22
-18
-16
-25
-39
-40
-23
-2
13
28
45
57
60
55
46
33
21
12
6
1
-10
-24
-34
-38
-34
-23
-15
-13
-10
-9
-11
-10
-1
7
14
19
23
21
13
-2
-35
-68
-89
-99
-83
-44
-9
4
5
0
-6
-10
-8
-1
4
9
15
20
26
36
47
53
56
58
61
60
55
48
40
27
10
-1
-6
-8
-9
-13
-22
-34
-44
-54
-63
-67
-63
-47
-26
-9
0
8
16
32
54
67
65
53
37
19
2
-13
-30
-47
-58
-54
-40
-24
-10
4
16
23
26
26
27
25
18
11
-3
-25
-32
-15
13
36
39
27
12
0
-13
-25
-30
-29
-28
-24
-16
-11
-8
-5
0
3
2
2
3
0
-6
-8
-7
-3
8
22
29
30
32
30
18
5
0
-4
-18
-40
-55
-55
-47
-33
-14
0
10
18
29
38
37
28
19
11
3
0
6
10
2
-6
-2
7
15
19
17
8
-4
-12
-20
-29
-35
-32
-25
-20
-20
-17
-8
0
7
14
21
27
33
38
37
30
24
17
9
4
1
0
-3
-14
-38
-63
-78
-78
-68
-55
-44
-29
-14
-1
12
27
40
46
48
46
44
45
48
52
55
52
42
31
20
6
-7
-21
-39
-54
-62
-60
-49
-35
-20
-7
0
1
2
5
10
15
24
38
49
51
47
47
46
27
-13
-56
-86
-101
-97
-80
-64
-54
-47
-35
-17
-2
6
11
16
25
35
43
50
57
63
65
62
53
44
33
23
20
20
14
2
-7
-12
-15
-22
-30
-37
-42
-46
-52
-52
-44
-36
-32
-26
-15
-2
10
23
34
45
49
47
41
36
33
28
22
19
12
-6
-27
-37
-41
-42
-40
-35
-27
-18
-10
-4
-3
-2
1
6
10
8
3
0
-5
-11
-12
-8
-2
6
19
18
2
-10
-8
3
7
-2
-16
-26
-29
-20
-1
16
30
42
49
48
43
38
35
32
24
17
11
5
0
-2
0
-1
-14
-30
-37
-34
-29
-28
-36
-45
-52
-56
-56
-44
-20
6
23
24
17
13
13
13
18
24
26
25
21
12
0
-10
-10
-3
0
-4
-10
-13
-10
0
11
18
20
28
42
50
48
42
29
9
-6
-12
-11
-12
-19
-22
-20
-21
-28
-38
-44
-41
-33
-25
-18
-17
-16
-8
6
25
41
54
63
63
52
37
25
14
1
-6
-9
-12
-18
-26
-36
-48
-63
-80
-93
-91
-74
-52
-33
-18
0
20
37
50
62
72
76
71
63
57
48
37
29
22
13
2
-5
-9
-11
-13
-16
-18
-20
-21
-20
-12
0
8
11
12
18
24
23
18
4
-21
-47
-60
-57
-37
-10
5
6
3
-4
-22
-42
-51
-46
-28
-7
4
10
18
33
49
49
33
10
-13
-29
-30
-19
-4
13
28
34
31
21
11
3
-3
-8
-9
-2
5
8
9
11
13
13
10
4
1
4
15
23
24
22
19
12
6
2
-2
-13
-33
-46
-42
-34
-31
-33
-37
-44
-55
-65
-59
-39
-13
12
36
51
58
63
65
57
47
43
42
30
8
-11
-19
-16
-4
8
9
0
-12
-21
-24
-19
-10
1
15
29
34
28
16
4
-13
-39
-66
-82
-83
-76
-62
-41
-17
0
2
0
-1
3
9
13
18
21
24
25
24
24
27
35
45
47
40
34
34
35
25
8
-3
-5
-3
-2
-4
-6
-6
-3
-5
-14
-27
-32
-28
-23
-25
-31
-34
-28
-13
1
10
17
26
37
42
41
38
35
28
16
4
-7
-22
-41
-49
-44
-37
-32
-25
-14
-5
0
3
9
13
9
2
-4
-6
4
24
39
38
20
-3
-22
-32
-31
-15
2
11
8
-6
-31
-53
-65
-66
-60
-47
-28
-8
9
32
60
73
66
55
57
68
67
52
32
14
1
-4
-10
-17
-27
-40
-49
-49
-44
-32
-15
1
11
18
26
32
30
23
15
3
-14
-29
-34
-25
-4
18
26
13
-3
-7
0
7
7
2
-4
-17
-33
-44
-50
-55
-54
-40
-15
12
40
64
73
67
60
60
65
64
52
35
12
-11
-30
-44
-62
-84
-101
-100
-87
-69
-45
-18
-1
2
4
8
14
22
31
40
52
70
85
84
72
59
49
34
16
2
-6
-13
-18
-22
-25
-24
-20
-20
-25
-29
-26
-22
-24
-36
-50
-56
-48
-28
-2
24
42
48
44
34
26
23
21
17
10
4
-10
-41
-66
-72
-70
-74
-89
-96
-76
-40
-9
11
25
34
45
58
69
74
78
81
79
69
54
43
39
36
31
21
-1
-31
-54
-61
-55
-42
-29
-21
-17
-16
-17
-19
-21
-25
-22
-13
-1
11
30
45
48
41
30
15
-1
-19
-36
-45
-41
-28
-9
11
24
23
14
3
-3
-5
-1
4
12
29
58
88
100
94
82
60
23
-11
-35
-56
-86
-123
-151
-164
-161
-140
-99
-58
-29
-8
12
34
50
55
54
60
78
88
75
47
15
-9
-16
-9
1
20
55
90
104
94
64
31
9
-1
-11
-27
-50
-71
-81
-73
-49
-29
-31
-54
-76
-90
-99
-102
-91
-63
-26
9
39
60
79
105
133
141
126
98
61
23
-4
-14
-12
-8
-4
0
3
10
18
26
32
42
58
69
60
31
0
-29
-68
-113
-135
-128
-111
-91
-73
-69
-82
-97
-104
-105
-101
-87
-63
-32
5
43
72
99
129
158
164
143
109
73
33
0
-14
-3
22
51
70
82
92
98
88
57
13
-28
-54
-61
-62
-65
-66
-61
-51
-39
-25
-12
-2
1
-3
-16
-33
-59
-88
-100
-89
-67
-41
-14
11
36
58
79
98
105
95
73
46
19
-5
-25
-34
-32
-20
-8
-8
-21
-44
-77
-106
-119
-122
-118
-97
-55
-5
30
47
62
89
114
113
79
30
-11
-33
-30
-9
15
33
43
36
17
10
23
35
30
9
-16
-39
-62
-74
-68
-58
-51
-37
6
82
149
189
215
220
192
145
96
44
-20
-92
-153
-196
-215
-196
-157
-128
-107
-80
-21
75
150
163
132
82
32
-5
-35
-61
-85
-99
-90
-68
-51
-45
-39
-4
66
127
124
61
5
-10
-15
-34
-67
-91
-84
-51
-26
-31
-44
-45
-32
-5
22
24
-10
-62
-84
-42
23
50
19
1
80
217
313
326
256
143
50
-21
-107
-195
-230
-195
-127
-62
31
181
308
340
291
187
52
-55
-102
-102
-68
-28
-30
-94
-183
-236
-219
-172
-150
-165
-200
-227
-235
-244
-255
-241
-191
-125
-50
65
236
397
495
534
506
393
232
94
6
-51
-99
-148
-206
-252
-237
-149
-24
92
162
177
170
163
144
109
46
-59
-168
-266
-356
-361
-238
-88
-12
9
66
202
369
480
445
272
85
-27
-78
-96
-109
-131
-149
-148
-160
-227
-303
-327
-291
-220
-155
-109
-88
-102
-168
-243
-239
-158
-61
91
356
634
819
904
838
576
259
37
-81
-149
-191
-181
-128
-79
-74
-119
-196
-273
-314
-292
-206
-93
7
89
157
199
210
186
90
-65
-179
-200
-177
-143
-103
-61
-17
21
-28
-225
-441
-532
-482
-343
-180
-32
123
322
488
486
364
297
346
477
611
633
517
339
106
-178
-380
-419
-365
-310
-283
-225
-97
50
128
108
43
-13
-74
-175
-288
-351
-334
-259
-184
-141
-107
-82
-108
-188
-266
-316
-333
-248
-16
263
494
667
784
814
750
667
609
489
265
54
-68
-139
-216
-317
-398
-430
-440
-450
-433
-369
-290
-223
-167
-118
-59
22
101
76
-125
-382
-513
-430
-190
40
221
443
711
837
662
335
101
13
-4
3
56
173
293
309
204
64
-33
-102
-210
-346
-422
-404
-324
-223
-136
-66
9
3
-168
-353
-393
-316
-160
65
308
532
726
768
549
198
-93
-253
-297
-256
-154
-28
67
64
-31
-120
-157
-182
-201
-166
-53
110
261
308
226
94
-4
-60
-100
-143
-192
-216
-178
-104
-78
-129
-195
-211
-160
-78
3
81
131
97
-33
-151
-134
5
134
173
198
280
360
360
290
205
133
39
-86
-151
-107
-18
56
137
268
411
391
126
-172
-311
-317
-288
-275
-255
-189
-94
-46
-83
-155
-189
-146
-52
26
64
93
136
199
281
320
255
89
-149
-396
-544
-561
-462
-243
38
267
427
581
702
695
533
305
107
-55
-215
-345
-419
-441
-430
-404
-356
-274
-167
-67
-5
30
79
150
203
176
68
-56
-145
-189
-181
-140
-102
-37
96
241
313
298
177
-11
-108
-84
-67
-78
-28
114
290
406
410
369
373
380
298
122
-77
-223
-310
-357
-367
-351
-312
-254
-184
-55
120
193
133
63
19
-41
-117
-181
-221
-218
-172
-111
-64
-35
-32
-78
-176
-277
-298
-199
-36
96
203
317
364
276
158
154
282
422
416
277
142
89
102
129
125
74
-45
-209
-321
-342
-313
-264
-201
-104
12
87
72
6
-15
16
-3
-152
-341
-414
-345
-211
-10
269
503
591
551
433
280
148
55
-16
-107
-224
-298
-303
-289
-298
-308
-265
-159
-35
58
124
191
238
222
144
57
-3
-54
-126
-207
-256
-248
-188
-85
44
155
240
317
366
324
171
-10
-131
-182
-192
-176
-136
-82
1
138
275
349
350
264
104
-26
-67
-56
-68
-139
-222
-257
-241
-198
-142
-67
25
99
101
36
-29
-70
-111
-157
-179
-159
-120
-80
-15
82
143
132
102
105
137
161
158
123
65
6
-41
-69
-74
-68
-70
-73
-56
-47
-92
-159
-190
-168
-113
-46
55
236
465
583
481
250
33
-116
-192
-206
-166
-96
-23
55
134
173
148
81
-4
-99
-176
-228
-275
-321
-348
-335
-266
-140
56
286
430
465
465
420
282
101
-40
-109
-120
-105
-96
-102
-112
-123
-130
-129
-122
-113
-104
-87
-60
-33
-18
-20
-29
-24
11
60
85
69
33
11
14
29
40
44
41
5
-65
-127
-150
-138
-79
17
94
116
98
63
20
-21
-49
-58
-30
33
59
-3
-87
-63
99
279
353
303
186
87
34
-5
-55
-96
-104
-71
3
91
133
99
31
-20
-55
-89
-115
-125
-129
-151
-197
-236
-237
-211
-166
-79
42
136
169
184
207
205
156
77
-18
-112
-160
-144
-92
-28
29
78
122
138
74
-62
-161
-164
-122
-121
-185
-241
-226
-137
5
151
248
297
287
215
135
83
49
21
-6
-25
-26
-17
-1
27
51
62
76
123
196
236
202
112
-4
-109
-160
-162
-158
-167
-184
-195
-201
-204
-182
-119
-56
-24
-12
8
50
83
86
70
47
29
21
20
23
29
39
54
71
80
64
24
-13
-35
-45
-44
-28
-2
16
19
14
6
1
0
3
11
20
25
21
14
10
5
-1
-5
-7
-10
-13
-17
-24
-33
-39
-37
-32
-29
-28
-22
-11
-2
0
1
5
15
28
38
44
47
46
41
34
26
18
7
-2
-3
3
7
4
-1
-4
-6
-15
-26
-33
-37
-44
-60
-80
-89
-76
-36
18
54
58
52
48
43
33
18
7
5
5
0
-11
-22
-25
-15
-3
1
1
1
5
9
13
20
28
33
33
32
35
36
32
22
13
1
-14
-29
-36
-33
-26
-28
-40
-52
-55
-48
-32
-14
-2
0
-1
-3
-4
-1
5
18
34
46
47
41
35
28
18
10
5
3
0
-3
-9
-14
-16
-16
-18
-22
-24
-22
-19
-18
-20
-20
-14
-1
12
18
19
19
17
13
7
0
0
2
4
6
12
15
9
-3
-12
-8
-1
-5
-14
-19
-16
-7
2
5
2
2
5
3
-9
-30
-49
-54
-30
8
36
44
44
46
50
48
41
34
25
10
-10
-34
-49
-57
-67
-71
-61
-40
-5
34
58
63
61
61
59
50
38
25
12
2
-3
-9
-18
-26
-29
-31
-34
-33
-27
-20
-14
-9
-1
1
0
4
16
28
33
30
27
27
27
26
24
16
4
-7
-25
-56
-88
-108
-112
-100
-80
-60
-40
-20
-1
9
14
18
29
48
63
68
69
70
71
66
54
44
26
-4
-30
-41
-45
-47
-50
-52
-45
-28
-9
5
10
9
10
17
23
27
27
23
25
38
55
64
62
49
34
15
-3
-18
-41
-83
-125
-143
-133
-95
-48
-15
1
9
15
19
18
15
19
35
52
56
51
46
42
39
35
29
23
17
9
1
-8
-18
-25
-26
-21
-13
-5
0
-1
-5
-6
-5
-6
-5
-2
2
8
16
22
19
3
-15
-30
-38
-40
-33
-25
-25
-35
-40
-29
-10
8
20
22
16
7
6
10
12
14
22
35
44
38
26
22
24
20
7
-10
-25
-28
-22
-19
-24
-30
-37
-42
-41
-31
-19
-6
4
11
17
24
37
56
70
72
67
57
43
20
-6
-32
-53
-59
-51
-41
-40
-48
-54
-50
-38
-22
-6
1
5
8
16
26
32
35
42
51
58
56
46
35
24
10
-2
-15
-25
-27
-21
-17
-16
-22
-40
-67
-85
-84
-65
-38
-16
0
12
22
34
51
64
66
59
49
40
29
16
8
3
-4
-9
-10
-12
-22
-37
-44
-44
-39
-23
6
33
48
55
53
42
25
9
-4
-34
-83
-117
-108
-67
-20
15
32
31
26
22
16
8
2
0
1
4
7
12
18
23
26
27
29
33
39
47
47
39
32
25
17
12
13
14
7
-9
-28
-44
-59
-71
-82
-94
-106
-112
-100
-71
-41
-19
0
16
28
34
38
43
53
61
61
52
39
26
19
13
8
10
9
0
-8
-10
-8
-6
-3
-2
-4
-5
-3
-2
-6
-8
0
16
26
33
40
43
43
38
28
15
-4
-27
-46
-60
-75
-82
-80
-76
-69
-56
-40
-23
-9
3
13
18
25
37
47
52
54
55
51
42
33
23
13
4
-1
-2
-6
-20
-33
-36
-32
-27
-22
-17
-11
-5
2
11
21
27
33
41
49
48
38
28
21
11
-2
-12
-16
-12
-7
-9
-17
-24
-29
-36
-46
-54
-51
-37
-14
7
21
29
35
40
38
29
19
12
4
-9
-24
-30
-25
-15
-9
-7
-8
-8
-10
-14
-15
-18
-27
-36
-36
-26
-5
19
39
52
58
62
64
60
45
22
-5
-27
-38
-43
-45
-46
-41
-30
-18
-12
-15
-20
-19
-11
0
14
25
33
38
38
35
36
40
45
45
41
37
30
23
18
12
4
-1
-4
-11
-24
-38
-45
-47
-48
-49
-47
-41
-34
-33
-30
-22
-15
-10
-3
1
6
14
25
32
30
25
19
16
12
9
6
0
-8
-17
-20
-22
-28
-28
-25
-28
-32
-27
-9
10
24
33
44
58
67
65
58
52
46
37
23
2
-26
-59
-80
-86
-85
-79
-64
-44
-30
-19
-4
13
28
36
39
40
38
35
29
25
28
34
35
32
29
28
24
19
14
6
-6
-24
-34
-39
-42
-48
-62
-76
-80
-69
-44
-14
6
21
35
45
50
52
51
47
42
38
34
26
19
13
0
-18
-28
-28
-24
-26
-34
-38
-31
-24
-19
-15
-9
-1
9
23
33
37
38
39
31
17
9
3
-4
-9
-11
-15
-24
-34
-39
-33
-23
