emg_value
42
40
38
27
8
-11
-29
-50
-69
-80
-78
-66
-53
-44
-37
-24
-6
9
22
33
40
43
40
36
36
44
56
65
64
53
36
19
2
-14
-35
-55
-70
-93
-121
-132
-114
-80
-43
-11
9
18
21
29
48
64
71
75
77
73
64
55
45
28
5
-14
-29
-43
-56
-63
-62
-54
-46
-36
-19
-1
12
18
23
34
45
52
54
53
48
41
32
22
12
0
-12
-22
-34
-43
-43
-39
-34
-28
-21
-15
-11
-10
-9
-12
-26
-47
-59
-53
-27
11
46
67
70
58
37
21
11
0
-13
-31
-50
-67
-78
-71
-46
-18
-3
1
10
28
46
55
57
59
60
57
47
34
25
22
19
14
12
16
19
16
10
4
-6
-23
-40
-53
-64
-68
-64
-54
-40
-24
-10
-2
4
12
20
23
21
23
31
41
46
42
31
15
-1
-15
-27
-35
-38
-36
-29
-17
-7
1
10
10
2
-11
-20
-18
-10
-8
-13
-14
-7
9
29
37
30
18
4
-4
-2
7
16
19
19
17
13
13
12
6
-5
-19
-35
-50
-54
-44
-26
-12
-3
5
18
31
39
36
23
6
-7
-12
-13
-13
-13
-15
-16
-11
-3
2
7
11
13
12
11
12
13
13
13
16
23
29
31
28
20
11
2
-8
-19
-29
-37
-42
-39
-31
-28
-36
-48
-57
-53
-38
-17
4
26
46
57
57
47
36
32
30
23
13
0
-18
-33
-37
-36
-37
-37
-31
-19
-7
0
3
6
8
12
19
24
26
31
40
53
58
57
55
50
40
24
8
-5
-23
-41
-53
-60
-67
-70
-66
-62
-61
-60
-56
-47
-31
-10
9
26
44
61
73
79
80
73
56
29
4
-11
-20
-31
-40
-46
-46
-40
-30
-19
-8
1
10
15
13
4
-6
-14
-16
-11
0
17
33
43
48
51
48
37
23
10
0
-4
-6
-12
-20
-29
-34
-29
-17
-6
1
9
14
13
5
0
4
15
17
8
2
8
17
17
8
1
-3
-16
-33
-47
-58
-68
-71
-60
-43
-31
-21
-8
5
16
29
42
44
37
35
43
47
37
23
16
13
4
-8
-22
-29
-27
-17
-10
-12
-20
-24
-19
-11
-4
0
1
0
0
5
13
22
34
46
48
42
36
33
29
21
11
2
-8
-23
-40
-55
-69
-74
-63
-44
-28
-19
-11
0
8
13
17
20
25
31
34
32
28
25
25
22
15
0
-24
-44
-47
-35
-21
-13
-12
-10
-8
-12
-20
-20
-10
-1
7
22
33
35
39
54
71
72
53
26
2
-15
-28
-40
-59
-79
-90
-85
-69
-49
-26
-2
13
19
22
31
42
48
48
46
52
61
66
64
57
49
40
33
27
22
16
1
-21
-46
-68
-87
-103
-111
-111
-104
-85
-52
-17
5
18
30
42
49
48
48
50
47
38
29
23
19
16
12
6
4
8
3
-9
-20
-27
-35
-45
-53
-57
-58
-57
-48
-30
-13
0
20
48
72
83
84
80
71
56
39
20
-7
-36
-56
-64
-66
-69
-69
-61
-50
-38
-18
5
27
43
48
50
55
64
68
56
34
15
9
12
17
11
-6
-26
-38
-49
-67
-81
-85
-82
-62
-22
13
31
38
41
41
36
31
33
40
36
16
3
10
21
13
-8
-29
-41
-47
-40
-17
7
17
8
-12
-29
-33
-29
-26
-26
-25
-17
-1
21
46
60
56
42
29
28
35
40
33
6
-30
-52
-51
-36
-19
-10
-22
-44
-58
-42
-1
31
43
45
44
41
35
27
24
20
9
2
7
17
23
17
5
-3
-10
-24
-44
-62
-72
-77
-72
-55
-40
-32
-18
11
39
51
54
53
51
51
55
60
56
39
16
0
-4
1
13
15
2
-16
-41
-71
-92
-95
-84
-68
-60
-62
-63
-53
-28
8
42
67
86
104
120
122
105
80
49
10
-24
-50
-76
-104
-125
-116
-81
-46
-20
2
18
28
37
46
52
50
40
23
3
-7
0
19
32
39
45
44
35
21
5
-10
-20
-20
-17
-17
-24
-34
-40
-44
-48
-51
-44
-24
-2
19
34
36
28
24
26
28
23
15
12
12
9
2
-4
-7
-5
0
8
18
24
23
16
2
-17
-35
-53
-83
-112
-114
-85
-42
0
24
31
33
37
37
31
26
25
23
17
9
4
0
-1
0
0
3
7
13
19
25
36
52
60
49
29
11
-4
-20
-32
-31
-21
-10
0
11
14
5
-8
-27
-47
-56
-51
-41
-33
-29
-27
-25
-19
-3
22
44
54
58
59
58
50
35
18
0
-21
-34
-35
-28
-20
-15
-15
-19
-22
-23
-21
-18
-14
-9
-1
8
17
26
32
35
39
46
53
58
55
39
16
-3
-18
-29
-37
-46
-57
-68
-73
-71
-63
-56
-49
-36
-12
15
34
38
34
34
38
43
49
48
33
14
6
9
5
-19
-48
-60
-49
-26
-4
0
-7
-14
-15
-11
-7
-3
3
17
36
52
62
67
74
81
83
76
60
34
2
-22
-38
-52
-63
-69
-72
-80
-88
-88
-79
-71
-64
-51
-28
-11
-5
0
13
34
51
59
59
60
69
73
64
43
20
6
6
12
18
18
10
-1
-13
-19
-17
-13
-17
-26
-34
-35
-33
-33
-36
-36
-30
-23
-20
-11
7
27
40
42
37
32
26
14
-2
-20
-34
-37
-29
-15
-4
2
8
14
15
10
3
4
15
27
34
40
44
46
43
36
24
8
-8
-18
-24
-30
-28
-16
-8
-14
-29
-43
-54
-56
-50
-43
-44
-49
-47
-35
-17
5
33
55
64
63
58
51
44
36
30
24
19
18
13
1
-13
-22
-28
-36
-40
-42
-40
-32
-17
0
16
29
33
31
26
9
-15
-31
-25
-6
7
7
0
-4
-3
0
-3
-12
-17
-15
-8
-2
2
10
13
7
2
5
11
22
31
30
25
27
30
24
11
1
1
3
0
-9
-21
-36
-49
-57
-53
-42
-33
-28
-22
-15
-11
-5
3
18
35
49
61
68
68
59
46
36
23
6
-11
-25
-32
-30
-24
-22
-21
-19
-16
-15
-15
-11
-2
5
5
-5
-22
-34
-30
-12
4
16
29
39
34
18
3
-7
-16
-24
-35
-48
-59
-56
-34
-9
7
19
29
36
34
23
8
-10
-24
-18
5
29
42
45
36
24
19
24
28
21
3
-13
-24
-30
-34
-40
-48
-56
-56
-40
-18
-2
9
19
25
26
27
33
40
39
32
29
30
29
23
19
19
20
17
5
-12
-33
-55
-75
-89
-88
-71
-46
-20
3
20
26
23
19
20
23
26
33
43
50
48
36
18
0
-15
-28
-37
-38
-38
-38
-38
-34
-23
-9
0
5
11
21
28
32
37
48
61
67
63
54
47
44
36
18
-6
-38
-79
-117
-135
-130
-105
-70
-42
-26
-17
-8
3
15
24
32
45
65
78
78
67
51
37
30
29
29
26
21
15
11
7
-3
-19
-29
-29
-21
-20
-33
-50
-60
-56
-43
-28
-12
6
24
37
42
43
42
38
26
10
2
8
17
15
-3
-29
-46
-54
-67
-94
-122
-126
-90
-37
-7
-9
-25
-33
-20
3
22
33
47
70
89
92
82
65
42
24
19
19
7
-17
-34
-36
-34
-29
-21
-15
-10
0
17
29
33
37
46
55
59
57
54
56
55
47
34
19
1
-23
-54
-81
-95
-92
-72
-51
-42
-40
-35
-26
-18
-8
0
8
13
17
22
28
37
49
62
65
57
44
24
0
-16
-20
-20
-25
-37
-51
-60
-62
-57
-43
-28
-18
-12
-3
11
26
37
43
45
48
55
63
71
65
36
-6
-46
-71
-77
-69
-58
-54
-53
-52
-50
-45
-34
-19
-6
2
5
6
14
29
49
60
64
68
75
83
78
58
35
16
4
-6
-22
-41
-55
-57
-52
-47
-41
-36
-30
-21
-7
7
18
21
18
21
27
25
13
0
-11
-12
4
17
11
-2
-16
-33
-54
-69
-74
-72
-63
-43
-16
5
20
29
28
18
16
38
80
105
101
83
71
67
59
35
-7
-57
-88
-81
-60
-52
-57
-62
-63
-59
-47
-32
-19
-10
-2
4
12
30
51
65
71
77
86
90
87
79
65
42
20
9
5
-8
-36
-62
-74
-77
-70
-52
-32
-18
-11
-7
-7
-10
-10
-8
-13
-23
-26
-21
-17
-13
-1
12
13
6
1
1
0
1
4
9
9
4
-5
-21
-39
-54
-55
-43
-27
-14
-4
12
42
72
93
101
104
109
114
100
63
30
16
5
-29
-88
-136
-154
-145
-123
-106
-94
-71
-38
-5
18
36
55
73
84
86
77
65
54
49
47
35
14
-1
-5
-6
-14
-26
-36
-44
-53
-59
-57
-47
-23
9
33
41
44
46
44
36
24
9
-1
0
8
12
8
0
-10
-19
-25
-32
-41
-52
-59
-62
-69
-86
-99
-91
-63
-24
19
52
75
93
101
94
79
70
69
71
73
70
58
37
3
-41
-74
-82
-75
-65
-56
-47
-39
-29
-18
-6
3
7
7
14
30
39
36
30
23
19
18
18
16
9
-1
-10
-13
-15
-15
-8
1
4
-4
-21
-40
-56
-69
-83
-98
-94
-57
-6
31
55
81
107
119
114
97
74
50
32
20
2
-32
-65
-79
-80
-81
-82
-69
-38
-3
21
33
30
20
10
-1
-19
-37
-41
-21
21
70
96
94
77
55
27
-2
-33
-55
-62
-56
-50
-50
-50
-40
-24
-12
-3
3
15
34
42
32
14
13
33
49
51
47
44
41
34
19
-2
-32
-69
-97
-109
-112
-108
-94
-68
-34
0
27
43
50
55
65
74
73
60
46
44
60
78
76
53
27
6
-18
-52
-87
-110
-102
-77
-57
-49
-49
-53
-50
-31
-6
15
36
51
58
60
64
72
76
71
63
54
41
31
25
19
2
-29
-60
-77
-84
-86
-84
-72
-51
-29
-10
2
3
-5
-11
-8
1
15
27
35
47
61
65
58
46
33
16
-6
-29
-41
-38
-30
-35
-55
-75
-77
-61
-39
-22
-15
-12
0
25
46
59
70
80
81
75
69
60
40
22
11
1
-13
-34
-65
-103
-131
-126
-95
-68
-51
-30
-1
26
46
65
82
94
97
91
85
81
66
37
4
-18
-29
-18
-15
-27
-67
-110
-110
-55
17
86
153
206
239
257
263
251
224
197
173
148
116
85
64
49
40
38
37
35
33
29
19
3
-12
-35
-72
-109
-135
-145
-133
-108
-91
-93
-106
-125
-143
-145
-135
-131
-137
-141
-127
-97
-67
-47
-37
-27
-10
8
27
44
58
68
72
68
55
41
30
21
10
-7
-29
-44
-47
-41
-31
-22
-14
-12
-12
2
27
48
58
63
70
79
90
95
86
63
40
28
22
13
-4
-27
-44
-49
-39
-25
-17
-14
-11
-9
-14
-20
-25
-31
-33
-16
19
55
76
86
87
85
78
66
51
35
24
18
8
-8
-24
-31
-35
-41
-52
-59
-62
-64
-63
-55
-46
-34
-15
9
30
39
41
41
37
23
9
4
4
6
6
2
-6
-18
-26
-32
-37
-43
-46
-45
-42
-36
-28
-21
-6
18
39
47
45
44
49
56
57
54
48
39
31
27
22
8
-16
-41
-55
-61
-65
-73
-81
-82
-72
-51
-27
-10
-1
5
5
3
14
39
67
84
86
75
62
51
31
-3
-48
-86
-102
-96
-87
-80
-70
-49
-17
9
20
17
18
39
70
93
103
106
104
95
78
57
34
7
-14
-28
-36
-33
-18
-5
-2
-8
-19
-30
-31
-32
-43
-62
-82
-95
-93
-72
-37
-3
15
17
15
16
19
22
24
25
25
23
18
10
2
-2
-4
-5
-5
-1
5
14
20
22
26
40
61
75
73
65
58
43
20
-2
-19
-34
-46
-50
-46
-41
-35
-30
-30
-38
-53
-70
-83
-82
-65
-39
-12
9
23
32
43
56
66
67
63
59
56
52
42
28
15
2
-13
-31
-49
-60
-67
-78
-89
-87
-75
-58
-34
-8
14
34
60
94
117
118
106
75
24
-31
-65
-65
-49
-35
-28
-31
-53
-81
-94
-79
-41
-4
21
35
36
30
26
24
27
42
63
77
79
75
68
56
46
39
26
8
-4
-10
-20
-39
-58
-68
-71
-70
-60
-45
-25
-1
22
41
43
34
24
16
5
-7
-18
-24
-19
-5
8
13
8
2
0
0
-2
-7
-9
-11
-12
-14
-15
-14
-12
-8
-3
0
8
24
44
58
68
73
71
59
39
12
-16
-37
-46
-53
-65
-77
-81
-79
-80
-93
-110
-110
-91
-60
-24
7
18
15
17
36
66
88
95
97
101
105
106
104
99
88
72
50
17
-25
-70
-107
-133
-139
-119
-84
-56
-31
5
49
88
110
109
91
63
11
-69
-143
-183
-182
-130
-44
21
50
60
68
78
83
73
49
21
-4
-21
-26
-22
-7
10
24
32
37
41
38
19
-21
-73
-83
-23
48
77
67
28
-31
-86
-122
-141
-140
-114
-67
-19
19
50
74
86
86
85
90
104
111
104
91
78
67
54
32
0
-46
-92
-118
-123
-124
-117
-94
-64
-38
-22
-12
-2
11
24
35
41
41
35
23
9
-3
-7
0
10
18
21
21
13
3
-1
-3
-11
-24
-33
-36
-35
-33
-29
-19
-6
14
39
55
58
59
56
39
12
-13
-28
-30
-29
-34
-50
-71
-85
-86
-74
-47
-8
39
85
113
115
100
78
50
16
-20
-59
-98
-135
-138
-93
-15
64
111
115
93
65
39
10
-22
-56
-90
-112
-105
-75
-48
-27
-2
22
40
51
63
77
82
77
66
55
48
47
49
49
51
52
44
29
9
-18
-48
-64
-70
-76
-79
-71
-60
-54
-48
-38
-23
-8
0
1
9
33
60
76
84
92
103
103
81
42
-5
-61
-125
-192
-244
-246
-191
-114
-55
-22
-3
15
35
48
51
42
25
20
39
69
90
95
91
88
90
88
73
44
5
-35
-73
-98
-103
-93
-80
-68
-54
-38
-19
3
30
59
83
95
102
109
110
95
69
45
30
21
18
32
61
87
87
57
8
-44
-114
-224
-339
-391
-350
-238
-115
-34
5
30
51
68
77
81
86
91
94
94
91
88
89
90
87
79
69
60
47
35
27
25
27
23
12
2
-6
-17
-24
-25
-24
-19
-13
-9
-11
-16
-22
-28
-33
-32
-26
-16
-7
-5
-13
-32
-62
-98
-124
-144
-168
-183
-157
-86
0
70
113
128
121
103
83
62
40
22
10
2
-2
-3
0
12
33
59
81
86
76
66
50
8
-67
-149
-201
-200
-138
-50
20
58
79
93
94
82
72
68
63
55
44
33
14
-8
-29
-44
-57
-74
-89
-93
-86
-72
-53
-34
-20
-6
15
44
73
90
93
95
107
121
115
88
50
20
10
13
10
-3
-38
-92
-132
-143
-137
-128
-116
-94
-61
-24
12
42
61
80
102
100
58
-8
-72
-113
-122
-101
-65
-22
33
85
99
80
62
60
75
91
94
86
78
79
78
61
28
-21
-75
-111
-127
-134
-128
-107
-95
-99
-97
-77
-52
-40
-36
-23
6
39
53
36
-16
-79
-103
-69
-8
41
53
25
-10
-24
-2
61
148
197
194
178
174
178
174
165
150
111
46
-25
-98
-180
-275
-356
-367
-306
-221
-134
-53
6
51
95
146
222
315
385
399
345
249
142
22
-122
-277
-388
-397
-333
-265
-237
-242
-224
-140
21
217
318
278
174
123
175
253
283
258
181
70
-13
-48
-55
-55
-61
-74
-88
-108
-157
-231
-294
-354
-452
-598
-728
-720
-566
-360
-146
71
267
446
632
838
1006
1005
827
578
318
86
-60
-128
-173
-200
-170
-89
-19
-25
-145
-325
-425
-410
-348
-270
-189
-126
-78
-18
72
152
148
69
-13
-26
53
170
266
329
356
341
286
207
121
41
-13
-30
-38
-77
-158
-249
-338
-434
-518
-532
-446
-307
-184
-84
30
180
345
461
447
310
155
46
-12
-27
-14
11
39
50
14
-76
-169
-216
-212
-168
-94
-21
20
37
55
73
74
61
52
65
101
126
114
77
41
23
18
22
39
62
57
4
-67
-112
-110
-82
-63
-62
-73
-108
-164
-206
-231
-246
-218
-137
-34
62
143
203
228
230
255
314
373
411
427
412
347
219
74
-14
-55
-104
-162
-200
-220
-241
-253
-230
-176
-115
-63
-7
63
123
137
95
-2
-127
-234
-301
-322
-316
-311
-280
-202
-108
-20
46
72
64
57
79
137
202
257
297
288
209
108
34
-34
-136
-229
-244
-199
-139
-65
0
29
48
81
110
110
89
78
104
175
251
246
135
-12
-112
-133
-102
-61
-33
0
60
113
119
69
-39
-187
-319
-402
-427
-396
-348
-314
-241
-68
198
464
589
562
519
540
538
436
265
48
-178
-296
-272
-195
-126
-72
-34
-6
11
7
-27
-97
-216
-345
-400
-350
-250
-148
-51
12
9
-20
-11
40
68
36
4
32
109
179
187
140
87
51
10
-56
-127
-167
-167
-146
-113
-54
30
121
200
240
216
143
59
-39
-163
-251
-250
-189
-78
78
209
266
285
281
225
113
-13
-130
-237
-327
-409
-483
-478
-344
-133
88
306
588
924
1092
964
646
285
-4
-150
-188
-212
-273
-351
-373
-330
-276
-215
-119
-21
11
-27
-122
-254
-351
-354
-287
-194
-99
-1
116
244
315
265
139
28
-33
-65
-88
-109
-127
-140
-135
-96
-35
24
54
44
24
24
42
55
59
56
27
-49
-161
-246
-244
-181
-99
27
207
383
530
648
666
525
304
115
-13
-119
-216
-257
-244
-239
-302
-399
-404
-289
-155
-65
31
183
332
356
231
106
88
135
178
182
126
24
-85
-160
-174
-145
-109
-82
-67
-65
-72
-99
-152
-220
-261
-220
-94
58
152
143
86
58
62
50
13
-2
21
40
-12
-129
-213
-213
-153
-64
19
55
47
28
19
36
84
137
168
185
223
266
254
160
20
-103
-157
-136
-72
-11
25
49
74
91
89
69
26
-45
-136
-222
-275
-272
-205
-68
103
194
150
37
-78
-167
-205
-201
-175
-89
58
181
241
265
235
133
6
-94
-153
-155
-101
-29
27
52
51
52
73
91
71
10
-57
-93
-95
-74
4
135
214
199
135
58
-9
-42
-30
15
63
70
27
-20
-35
-22
-17
-35
-65
-88
-94
-97
-129
-182
-212
-203
-177
-145
-80
37
192
317
333
256
159
82
25
-26
-78
-116
-130
-123
-100
-80
-60
-5
92
184
218
163
35
-80
-132
-152
-165
-154
-110
-59
-38
-25
18
66
88
98
131
181
205
188
146
81
-14
-133
-244
-312
-318
-287
-268
-268
-210
13
336
506
468
380
324
285
215
84
-72
-184
-218
-187
-118
-35
26
35
9
-17
-29
-49
-85
-116
-123
-119
-115
-112
-101
-80
-56
-27
8
35
49
60
80
101
101
59
-20
-111
-180
-202
-179
-114
12
168
244
202
125
77
56
52
78
109
88
7
-83
-132
-117
-66
-33
-38
-58
-56
-28
1
33
83
132
146
117
66
18
-16
-39
-49
-50
-54
-77
-107
-116
-107
-95
-69
-4
97
208
272
243
138
31
-40
-84
-86
-25
60
115
113
49
-44
-102
-107
-93
-81
-76
-104
-167
-218
-201
-120
-29
56
166
286
329
242
97
-6
-48
-58
-59
-68
-87
-85
-41
9
21
0
-29
-43
-48
-61
-88
-118
-127
-102
-58
-16
26
70
108
120
97
49
-2
-44
-62
-46
-22
-39
-86
-103
-65
-10
16
19
35
114
228
256
175
74
29
56
95
87
56
58
82
85
60
26
-12
-52
-76
-79
-70
-71
-94
-117
-123
-122
-124
-124
-105
-70
-36
-1
41
64
44
10
-6
-2
13
31
44
38
12
-6
-1
16
21
6
-14
-27
-26
-4
26
41
36
18
-8
-37
-59
-70
-71
-59
-41
-20
3
27
50
73
92
109
116
89
26
-31
-50
-36
-11
5
5
-1
-6
-7
-8
-10
-7
4
16
22
13
-6
-27
-59
-108
-136
-113
-57
0
31
40
44
52
67
86
96
96
90
72
36
0
-24
-35
-39
-39
-42
-46
-46
-35
-13
2
5
3
1
-8
-27
-43
-46
-32
-25
-34
-40
-27
5
55
101
126
141
143
108
44
-10
-40
-50
-48
-43
-44
-54
-60
-49
-27
-11
-4
0
4
1
-12
-23
-17
-11
-20
-35
-27
15
53
54
27
-17
-65
-87
-68
-33
0
26
38
40
38
37
33
22
8
-1
-6
-5
0
3
2
-2
-7
-8
-8
-11
-16
-21
-22
-14
1
24
48
63
72
83
92
88
71
47
16
-24
-61
-80
-96
-120
-142
-157
-162
-143
-99
-55
-26
-4
24
52
73
86
91
86
80
80
82
76
61
45
33
27
23
16
7
1
-1
0
3
9
19
28
23
7
-3
-7
-12
-29
-59
-90
-100
-80
-45
-15
-3
1
12
23
28
28
19
2
-11
-15
-6
5
12
8
-1
-11
-23
-36
-45
-44
-36
-18
5
23
30
36
46
57
63
63
62
56
42
25
9
-9
-36
-64
-81
-84
-75
-54
-35
-29
-32
-26
-14
-5
-4
-2
6
21
36
41
35
23
18
27
37
40
41
48
52
38
14
-7
-18
-24
-32
-42
-53
-56
-43
-18
8
22
14
-15
-43
-51
-41
-26
-14
-3
16
44
61
54
31
10
-5
-20
-36
-41
-36
-26
-18
-16
-17
-14
-5
4
13
23
39
59
85
110
118
106
86
52
-2
-61
-104
-128
-121
-81
-30
4
18
23
27
27
20
10
5
9
17
22
15
-4
-32
-49
-48
-37
-32
-44
-51
-37
-10
17
39
46
42
34
22
3
-16
-21
-12
0
4
4
4
9
14
13
4
-13
-37
-53
-47
-25
0
18
38
63
80
80
73
63
46
27
8
-11
-37
-72
-99
-111
-113
-102
-80
-59
-39
-18
4
27
46
58
63
67
71
72
67
63
66
75
75
64
47
24
-7
-37
-59
-76
-89
-94
-87
-75
-60
-39
-17
-6
-8
-9
-5
5
19
36
54
64
56
38
29
30
26
9
-12
-23
-20
-14
-15
-24
-42
-63
-79
-84
-74
-45
-7
26
51
60
58
55
53
45
34
24
17
14
18
21
18
7
-11
-29
-36
-30
-22
-13
-8
-8
-4
6
17
17
7
-5
-16
-29
-45
-55
-53
-47
-43
-30
-7
15
28
26
13
3
4
11
14
9
1
2
18
43
63
65
53
40
23
-1
-26
-38
-36
-13
26
54
60
56
41
6
-31
-55
-72
-89
-97
-94
-80
-57
-25
4
20
24
26
33
43
48
44
32
21
19
28
37
42
40
34
28
27
28
18
-5
-30
-43
-51
-60
-61
-45
-19
0
7
8
4
-1
-11
-23
-32
-33
-24
0
37
63
69
60
46
33
22
5
-21
-56
-87
-96
-84
-70
-57
-38
-18
-6
0
18
52
86
107
115
105
72
26
-16
-46
-62
-66
-69
-80
-93
-89
-69
-35
6
36
44
34
19
8
1
0
7
20
31
38
44
51
60
71
81
88
87
78
61
40
8
-32
-55
-47
-29
-20
-27
-35
-39
-42
-56
-89
-122
-139
-137
-109
-57
-7
26
49
62
67
63
55
46
41
43
48
55
61
54
31
9
-1
-4
-4
1
14
23
19
-4
-53
-112
-154
-158
-127
-75
-25
12
42
67
85
89
81
67
52
39
27
16
7
-1
-11
-18
-17
-11
-13
-37
-66
-79
-72
-54
-33
-11
16
48
75
88
81
63
47
32
13
-1
-7
-10
-8
8
28
32
16
-8
-30
-40
-40
-47
-73
-101
-90
-41
6
26
19
0
-15
-13
10
49
76
77
65
45
22
4
-5
-19
-35
-40
-28
-5
14
24
27
30
28
16
-7
-39
-64
-66
-43
-11
17
42
68
87
86
64
27
-16
-58
-91
-115
-131
-131
-105
-63
-31
-17
-10
5
27
39
43
46
55
62
62
55
43
38
42
47
45
39
34
28
22
17
14
5
-12
-27
-32
-29
-23
-19
-16
-9
-2
0
-10
-36
-58
-56
-36
-21
-17
-11
2
20
33
35
28
20
18
20
14
-5
-31
-53
-56
-39
-18
-8
-11
-25
-44
-58
-56
-40
-11
22
53
74
80
67
41
18
12
19
20
8
-10
-21
-25
-24
-20
-14
-7
2
13
18
17
19
29
45
54
54
48
35
16
-3
-21
-30
-19
0
3
-10
-23
-28
-32
-35
-34
-25
-19
-24
-35
-43
-43
-31
-10
8
17
23
29
36
40
41
42
42
37
28
20
16
12
1
-18
-42
-63
-73
-65
-49
-35
-23
-15
-10
-2
15
37
51
51
42
30
19
12
5
-4
-10
-12
-18
-28
-35
-34
-29
-22
-16
-11
-3
6
15
18
17
16
16
15
12
9
12
25
39
39
25
9
5
11
12
0
-16
-24
-15
-6
-7
-18
-24
-19
-10
-8
-12
-17
-19
-16
-5
9
22
30
34
30
20
18
32
44
41
30
16
-2
-25
-53
-82
-103
-114
-111
-96
-79
-58
-25
6
29
46
72
112
142
146
134
108
66
18
-29
-67
-78
-56
-30
-26
-38
-53
-63
-63
-54
-43
-28
-9
6
21
38
54
65
65
57
44
28
16
13
15
11
-2
-20
-25
-19
-12
-4
3
7
6
4
0
-11
-28
-45
-59
-67
-72
-63
-38
-10
14
33
45
51
53
53
48
38
25
14
10
14
19
18
15
10
2
-7
-15
-21
-23
-24
-25
-26
-24
-25
-33
-43
-50
-45
-22
6
29
41
43
39
36
36
35
27
15
3
-5
-17
-38
-67
-80
-69
-47
-26
-7
7
16
19
18
17
20
26
33
40
49
54
54
53
44
26
1
-20
-35
-43
-45
-40
-32
-28
-31
-31
-26
-16
-4
9
17
14
7
1
3
14
23
23
14
9
9
9
6
5
13
23
23
7
-17
-39
-49
-47
-41
-36
-24
-1
25
46
64
73
67
49
31
16
-8
-51
-98
-123
-114
-73
-21
8
12
9
6
-1
-15
-26
-24
-4
22
36
36
31
26
23
20
17
20
35
59
75
72
62
47
28
9
0
-4
-9
-18
-27
-33
-34
-33
-35
-42
-47
-48
-45
-36
-28
-18
-5
5
9
9
13
25
35
31
16
0
-8
-6
0
5
9
10
1
-18
-35
-39
-39
-44
-46
-33
-12
2
8
11
17
29
45
61
74
82
83
77
63
46
32
17
-7
-44
-84
-105
-108
-108
-110
-106
-87
-53
-12
24
49
64
72
74
71
64
55
40
16
-10
-21
-11
5
24
45
61
63
52
25
-14
-52
-81
-113
-151
-168
-129
-55
0
24
26
22
27
43
56
56
45
31
19
15
22
27
17
-1
-13
-7
3
9
12
12
7
-4
-18
-31
-36
-29
-14
-1
8
23
43
56
55
48
43
41
34
19
4
-7
-18
-28
-37
-46
-53
-54
-45
-31
-18
-7
0
0
-7
-13
-11
4
30
59
84
98
93
69
31
-24
-90
-130
-131
-107
-69
-27
-5
-7
-19
-40
-68
-83
-76
-54
-24
6
26
39
54
79
112
137
144
135
114
74
17
-38
-74
-74
-41
-7
0
-13
-40
-69
-80
-66
-42
-27
-21
-17
-12
-8
-2
6
18
35
57
77
85
76
61
48
37
23
7
-5
-12
-17
-24
-33
-37
-29
-12
6
17
17
16
12
4
-5
-13
-14
-3
14
25
24
16
7
-1
-10
-14
-7
3
12
17
12
-5
-35
-73
-104
-117
-105
-71
-34
-9
6
17
24
29
35
45
59
67
67
65
66
64
48
13
-28
-63
-90
-120
-151
-164
-145
-94
-37
-2
11
18
22
23
27
41
63
90
114
119
110
97
81
53
13
-25
-48
-55
-56
-55
-54
-56
-52
-34
-12
1
12
21
25
19
7
-3
-2
21
54
79
88
81
54
17
-19
-49
-59
-40
-18
-13
-22
-35
-49
-55
-48
-33
-17
-3
5
10
17
28
46
63
73
82
88
85
74
60
47
35
20
2
-16
-33
-50
-67
-83
-93
-97
-89
-63
-29
0
24
50
72
76
60
29
-13
-53
-76
-85
-80
-62
-48
-57
-81
-95
-85
-60
-31
2
35
61
68
58
44
24
-6
-36
-53
-50
-30
-8
2
11
32
60
82
88
77
63
50
43
52
73
79
65
48
40
36
30
15
-17
-60
-86
-86
-71
-55
-42
-29
-18
-8
5
24
42
53
51
42
31
14
-11
-47
-80
-79
-42
-7
-4
-36
-76
-93
-91
-82
-69
-44
-8
28
63
93
110
115
118
118
107
82
46
4
-44
-98
-131
-137
-128
-109
-71
-27
3
15
13
2
-10
-17
-14
-8
-7
-9
-7
-1
11
39
75
112
144
167
173
156
118
69
1
-77
-127
-133
-115
-85
-57
-45
-54
-80
-107
-109
-83
-47
0
57
97
102
85
60
38
23
12
-1
-11
-7
5
17
23
25
23
13
0
-12
-18
-13
-5
0
3
14
33
48
51
45
37
27
9
-15
-40
-59
-61
-47
-30
-21
-25
-32
-37
-39
-37
-30
-15
-2
4
10
20
36
54
60
46
23
3
-18
-42
-54
-34
10
41
41
28
12
-8
-33
-56
-69
-73
-67
-62
-71
-89
-89
-53
-1
43
81
119
156
171
161
140
112
67
9
-52
-99
-116
-104
-82
-71
-75
-79
-67
-45
-32
-30
-33
-30
-13
16
51
86
115
122
112
96
75
52
30
11
-2
-20
-40
-49
-44
-34
-29
-26
-17
0
13
5
-18
-31
-26
-8
24
60
80
82
78
75
55
14
-33
-87
-140
-177
-188
-172
-117
-28
52
98
113
104
83
66
58
51
37
13
-14
-50
-104
-164
-183
-145
-81
-20
24
54
76
90
95
88
64
29
10
22
55
72
53
14
-12
-11
9
29
33
10
-52
-136
-175
-138
-61
11
60
79
89
107
131
144
130
94
52
19
5
7
19
31
37
24
-11
-55
-91
-128
-194
-279
-342
-357
-339
-306
-254
-182
-74
90
270
408
470
433
319
196
116
87
103
137
135
75
-12
-109
-204
-267
-282
-252
-154
7
143
204
233
273
304
281
190
55
-81
-185
-239
-240
-205
-177
-184
-212
-219
-191
-165
-169
-168
-140
-103
-62
5
117
257
378
402
299
158
72
41
38
55
77
72
18
-99
-238
-301
-277
-225
-169
-101
-17
71
161
240
272
251
192
82
-50
-116
-101
-70
-45
-16
10
37
90
155
182
149
81
-5
-129
-266
-355
-396
-405
-333
-156
43
187
277
366
458
446
289
105
27
63
99
69
7
-35
-52
-79
-139
-212
-299
-424
-557
-638
-619
-461
-222
-40
53
141
341
652
845
791
609
456
373
297
197
68
-97
-265
-394
-470
-495
-475
-402
-294
-187
-72
62
157
179
165
162
176
167
117
49
-22
-78
-88
-67
-50
-46
-46
-41
-17
22
4
-128
-304
-403
-391
-293
-155
-29
89
229
416
601
636
491
310
200
141
72
-7
-79
-134
-152
-128
-94
-98
-171
-255
-267
-200
-94
11
83
138
206
255
215
79
-79
-191
-225
-190
-129
-60
31
148
231
215
126
36
5
38
77
79
45
-8
-72
-143
-227
-312
-369
-372
-332
-306
-324
-308
-200
-88
-49
-43
33
246
497
629
615
552
499
415
291
183
102
21
-53
-93
-96
-76
-47
-27
-27
-45
-105
-208
-299
-342
-341
-281
-166
-64
-7
38
69
30
-69
-156
-198
-199
-146
-16
191
441
591
501
240
-18
-193
-275
-280
-250
-216
-114
98
288
331
235
66
-72
-84
10
99
91
-6
-93
-105
-68
-42
-65
-84
-28
76
137
115
64
28
2
-27
-50
-53
-41
-35
-48
-84
-129
-164
-184
-209
-276
-364
-392
-316
-177
-41
58
151
291
480
623
619
508
380
254
140
65
27
5
-14
-35
-65
-107
-171
-248
-295
-323
-363
-388
-387
-397
-386
-263
5
317
499
540
574
638
600
383
104
-88
-158
-155
-140
-134
-126
-93
-48
-37
-72
-115
-132
-121
-98
-69
-35
-27
-64
-109
-132
-150
-187
-211
-171
-78
22
81
86
98
152
203
193
127
74
86
136
160
127
56
-15
-71
-119
-153
-164
-159
-158
-154
-113
-39
26
81
168
274
338
324
232
95
-14
-67
-76
-71
-76
-94
-108
-109
-99
-86
-77
-71
-67
-62
-51
-42
-37
-30
2
79
156
171
128
85
81
83
54
7
-33
-71
-126
-210
-294
-306
-228
-144
-116
-53
139
361
458
397
271
198
177
137
62
-13
-60
-75
-72
-73
-68
-38
-11
-28
-78
-131
-184
-240
-275
-251
-157
-44
19
37
49
54
44
36
30
21
24
49
80
96
90
82
78
48
-12
-76
-123
-140
-117
-76
-21
67
168
216
188
108
-1
-95
-118
-74
-22
-2
-10
-11
5
23
27
11
-6
-15
-26
-50
-62
-30
24
49
27
-15
-55
-82
-87
-38
54
95
48
-38
-112
-130
-89
-15
68
140
173
150
90
73
130
173
143
86
55
49
34
-5
-59
-121
-179
-216
-217
-155
-30
92
110
31
-46
-70
-52
-27
-5
25
94
186
219
166
86
25
-12
-50
-123
-230
-332
-376
-339
-244
-136
-20
96
165
159
116
84
78
68
43
16
-1
0
24
60
88
97
94
84
75
68
42
-3
-33
-34
-37
-70
-124
-150
-111
-25
31
7
-36
-10
89
180
177
92
11
-13
4
31
54
63
50
21
-5
-23
-28
-22
-9
-6
-32
-84
-129
-138
-108
-64
-27
-6
-5
-22
-23
5
42
77
119
164
207
239
211
107
-4
-67
-91
-117
-171
-227
-249
-228
-169
-97
-46
-29
-38
-67
-98
-101
-69
-16
47
113
170
208
216
189
146
99
50
-6
-59
-72
-41
-4
10
0
-50
-142
-207
-168
-51
36
49
36
84
181
194
100
4
-24
0
34
60
76
84
85
66
23
-25
-61
-75
-64
-35
4
41
52
23
-29
-80
-121
-148
-139
-94
-55
-53
-67
-64
-30
37
136
229
259
209
117
27
-39
-79
-107
-127
-118
-71
-24
-7
-6
4
24
15
-6
16
81
112
75
12
-29
-39
-34
-28
-29
-38
-57
-76
-83
-76
-64
-54
-41
-20
0
8
0
-25
-51
-62
-55
-39
-15
36
123
208
243
216
161
101
32
-59
-147
-166
-115
-60
-42
-46
-40
-18
0
8
11
13
12
11
12
14
16
19
17
-1
-36
-58
-59
-56
-49
-28
8
66
137
188
186
137
79
25
-41
-111
-148
-137
-82
-13
35
72
117
149
127
54
-19
-62
-76
-66
-45
-31
-26
-25
-30
-34
-38
-54
-82
-86
-36
38
100
124
98
36
-26
-68
-99
-121
-126
-120
-97
-43
31
101
153
185
183
148
98
51
21
8
1
-11
-30
-48
-71
-111
-150
-153
-116
-64
-29
-25
-41
-59
-68
-65
-52
-28
12
65
100
105
97
93
96
90
67
41
26
22
13
-1
-19
-51
-95
-109
-80
-36
-5
5
9
16
30
40
39
29
25
35
61
90
101
94
77
48
-1
-53
-85
-88
-71
-54
-42
-21
17
36
0
-71
-127
-148
-122
-58
2
36
51
65
88
103
101
93
82
65
49
42
37
22
-5
-33
-57
-75
-103
-155
-206
-230
-231
-197
-110
-1
95
171
202
172
122
101
108
117
109
86
59
38
26
17
6
-3
-9
-15
-29
-40
-37
-25
-18
-23
-37
-53
-73
-94
-96
-71
-33
4
31
33
19
12
16
26
30
29
27
21
10
0
-8
-18
-29
-39
-39
-28
-16
-8
-4
-2
0
3
11
22
34
41
43
42
41
40
40
41
49
61
65
55
36
2
-57
-121
-170
-203
-215
-188
-132
-74
-27
13
44
57
58
61
69
73
67
58
57
64
74
76
70
61
56
54
45
24
1
-7
-1
-5
-36
-81
-119
-141
-134
-100
-56
-7
44
76
70
37
10
5
4
-12
-36
-49
-39
-7
22
30
16
-7
-26
-35
-32
-16
7
28
42
49
51
50
46
43
47
55
61
58
48
36
19
-2
-19
-25
-24
-24
-30
-43
-56
-62
-56
-42
-30
-23
-15
-5
4
12
17
19
20
22
21
18
15
14
13
10
7
9
11
11
9
2
-7
-20
-37
-50
-59
-66
-74
-83
-89
-94
-84
-47
0
40
71
92
105
102
82
57
33
9
-10
-21
-25
-25
-23
-19
-16
-15
-8
2
10
14
19
15
0
-15
-14
0
17
29
29
23
20
27
37
39
35
31
18
-6
-24
-30
-33
-37
-42
-47
-43
-28
-10
1
0
-10
-27
-42
-45
-32
-10
3
12
28
44
52
54
56
61
61
56
51
41
20
-6
-36
-57
-65
-72
-80
-76
-56
-25
7
25
29
32
41
48
43
30
15
6
8
12
13
13
14
15
4
-22
-58
-88
-97
-89
-82
-74
-52
-15
16
30
36
46
58
66
71
70
60
44
24
-1
-21
-30
-34
-43
-54
-53
-34
0
29
44
43
30
7
-14
-30
-45
-52
-40
-12
14
36
55
69
69
55
35
17
14
22
25
16
0
-21
-41
-58
-74
-84
-78
-55
-29
-5
19
43
53
47
35
32
43
54
48
31
21
18
13
4
-6
-20
-34
-41
-43
-49
-60
-62
-50
-35
-22
-11
-1
5
6
2
3
14
29
45
65
86
93
83
71
56
27
-13
-61
-104
-117
-106
-100
-110
-112
-87
-48
-20
-9
-3
11
33
51
61
70
88
106
103
78
50
33
24
16
10
12
19
15
-5
-35
-57
-78
-105
-125
-126
-108
-72
-27
10
35
53
66
66
59
57
62
64
54
34
16
8
6
6
7
9
10
6
-6
-30
-52
-62
-57
-45
-38
-37
-39
-31
-11
10
22
28
35
47
55
54
51
50
51
48
45
43
40
29
8
-13
-33
-58
-96
-132
-145
-134
-97
-49
-19
-9
2
16
23
25
33
40
35
24
23
35
52
68
73
64
47
21
-19
-61
-85
-87
-76
-63
-50
-31
-7
15
36
44
42
39
31
11
-13
-23
-7
23
51
58
46
30
12
-4
-12
-12
-9
-7
-4
-4
-10
-19
-22
-13
0
10
16
18
21
27
28
18
8
13
28
38
35
19
-4
-29
-42
-38
-22
-6
2
4
-1
-16
-46
-90
-140
-177
-171
-111
-35
22
56
78
93
98
95
91
82
71
65
60
45
14
-26
-55
-63
-60
-51
-38
-25
-18
-20
-27
-32
-36
-42
-36
-10
21
45
62
76
82
79
68
55
42
30
16
7
5
3
-9
-34
-52
-56
-53
-53
-55
-49
-33
-14
2
15
21
26
32
43
53
53
44
37
37
39
37
29
19
5
-21
-57
-95
-125
-136
-125
-99
-69
-42
-19
1
16
23
28
37
52
63
63
55
38
19
13
17
19
21
22
18
12
8
3
-6
-21
-44
-74
-97
-98
-76
-42
-6
24
48
60
62
61
56
46
38
38
49
66
80
77
60
43
24
-4
-40
-71
-89
-95
-93
-90
-96
-104
-93
-60
-27
-11
-2
14
37
52
53
39
12
-6
-7
2
14
28
37
32
19
9
6
2
-5
-16
-22
-12
9
31
50
62
63
55
46
35
10
-24
-46
-43
-28
-15
-5
0
0
-1
-1
-6
-18
-30
-38
-43
-46
-43
-35
-26
-19
-13
-12
-8
3
28
57
68
63
55
47
36
29
25
22
18
10
-1
-10
-13
-15
-24
-39
-49
-53
-51
-47
-49
-52
-41
-8
31
52
41
13
-19
-48
-58
-46
-23
8
41
54
50
40
26
10
-10
-33
-42
-37
-30
-18
1
22
39
51
55
52
48
48
53
57
60
60
51
30
9
-3
-12
-22
-31
-34
-30
-22
-21
-32
-46
-58
-72
-84
-89
-77
-46
-9
21
44
53
46
32
19
15
18
23
31
45
55
52
40
24
0
-30
-50
-55
-55
-49
-32
-18
-20
-34
-58
-80
-76
-36
17
54
60
46
31
21
10
1
2
10
20
24
19
9
2
0
-9
-31
-45
-40
-26
-10
4
16
27
38
49
61
63
55
46
41
38
35
33
31
29
23
13
-3
-26
-50
-74
-92
-102
-102
-81
-41
-4
16
27
32
27
14
-2
-18
-20
1
31
51
58
52
37
19
3
-12
-34
-54
-66
-69
-56
-32
-14
-5
4
14
21
25
26
25
23
20
13
3
0
9
28
46
56
58
45
12
-25
-61
-96
-130
-144
-124
-83
-39
2
34
45
42
39
40
44
48
51
55
61
61
48
33
26
23
15
4
2
6
0
-24
-51
-64
-63
-64
-81
-96
-86
-50
-1
41
59
57
53
52
51
48
43
37
29
17
8
5
5
3
-4
-16
-27
-34
-37
-37
-33
-29
-24
-17
-5
6
17
26
31
34
31
22
10
3
3
8
14
21
29
35
31
16
2
-6
-13
-26
-46
-74
-101
-112
-103
-94
-93
-79
-49
-22
-4
11
25
39
50
59
66
72
75
73
63
53
44
35
23
10
2
0
6
14
17
17
15
11
9
6
3
7
24
42
50
47
32
1
-31
-58
-76
-78
-62
-39
-21
-8
-9
-31
-62
-87
-100
-99
-89
-81
-73
-52
-12
33
65
79
86
89
89
85
81
74
62
45
24
5
-1
2
7
5
-3
-11
-22
-39
-49
-47
-43
-36
-28
-25
-19
-1
26
50
59
57
52
23
-37
-94
-115
-102
-68
-26
3
14
16
18
21
19
14
10
9
15
27
40
48
52
54
51
39
19
2
-4
0
10
20
26
27
18
3
-11
-21
-28
-36
-46
-57
-62
-52
-34
-15
2
22
42
50
46
39
36
34
21
-5
-29
-35
-38
-51
-67
-70
-57
-34
-16
-12
-15
-19
-23
-23
-16
0
24
42
52
60
68
70
59
41
25
17
8
-10
-34
-46
-38
-18
-1
8
18
26
26
24
30
33
18
-25
-85
-126
-140
-146
-140
-109
-56
0
42
64
69
70
67
61
58
65
78
84
73
46
13
-13
-26
-29
-29
-27
-15
0
13
14
2
-10
-6
24
71
97
92
75
57
33
-3
-55
-111
-143
-131
-88
-43
-15
0
7
7
2
-11
-36
-70
-90
-81
-50
-7
34
58
63
65
76
94
104
99
88
78
65
45
13
-25
-59
-82
-91
-93
-88
-73
-53
-38
-32
-30
-28
-22
-19
-18
-12
11
51
75
67
49
47
58
59
49
35
15
-6
-16
-15
-14
-31
-70
-100
-98
-71
-40
-12
9
26
39
52
70
83
82
72
51
10
-38
-76
-102
-104
-69
-26
-2
8
15
15
9
5
8
18
30
38
43
45
49
54
53
45
38
36
34
23
5
-6
-12
-19
-23
-15
0
-1
-33
-81
-129
-170
-181
-150
-105
-69
-40
-11
14
30
41
49
61
79
102
124
137
134
115
85
55
20
-26
-68
-82
-67
-39
-17
-15
-27
-37
-34
-18
-1
10
13
-1
-28
-50
-56
-51
-39
-16
13
42
64
74
62
35
10
-1
-1
3
5
0
-7
-9
-7
-8
-11
-15
-12
0
12
18
16
9
4
4
12
24
34
41
40
33
24
7
-22
-51
-64
-64
-63
-62
-52
-31
-10
4
13
16
15
16
20
28
33
37
38
31
10
-9
-14
-1
21
40
42
30
13
-5
-21
-34
-43
-49
-46
-37
-31
-31
-35
-37
-30
-15
-2
2
5
16
29
34
32
37
56
77
86
83
60
8
-54
-104
-136
-151
-144
-111
-68
-30
-4
9
11
5
8
27
59
85
100
115
138
155
154
131
76
-9
-85
-133
-160
-159
-130
-102
-88
-76
-56
-30
-12
-2
9
32
63
91
113
130
135
120
86
40
-2
-39
-64
-61
-35
-7
5
3
-4
-13
-22
-36
-49
-53
-47
-38
-29
-21
-14
-6
2
11
17
18
21
28
37
46
49
45
39
34
29
22
15
14
14
8
-5
-21
-35
-48
-63
-71
-58
-30
-2
8
-5
-35
-63
-77
-69
-40
-1
33
64
84
89
84
78
67
43
11
-19
-44
-70
-95
-108
-108
-97
-63
-13
14
6
-18
-42
-45
-16
27
64
91
110
116
118
124
128
114
82
42
-6
-64
-112
-140
-147
-130
-100
-78
-69
-61
-39
-2
30
51
66
80
92
90
78
66
49
24
-2
-16
-20
-21
-23
-23
-19
-15
-4
13
26
29
29
32
36
26
2
-25
-47
-54
-48
-41
-42
-46
-44
-34
-19
-4
16
42
57
56
53
51
51
46
39
32
5
-57
-128
-175
-200
-201
-165
-101
-37
18
72
107
115
110
105
99
90
76
66
59
49
33
17
4
-8
-28
-45
-49
-34
-4
32
52
52
45
33
17
2
-19
-63
-130
-190
-192
-136
-74
-43
-31
-17
5
28
47
63
72
72
69
62
43
28
41
75
108
123
113
92
74
58
26
-20
-68
-103
-104
-69
-37
-35
-51
-59
-50
-38
-35
-32
-24
-20
-21
-16
0
25
42
43
32
8
-29
-64
-75
-71
-66
-50
-22
13
48
76
88
71
34
0
-31
-64
-84
-81
-60
-31
2
39
79
118
154
194
217
208
171
94
-22
-112
-135
-118
-97
-88
-83
-75
-61
-20
37
69
62
39
9
-34
-89
-146
-185
-192
-159
-108
-63
-17
53
127
177
195
176
129
87
61
37
-1
-53
-93
-106
-102
-92
-81
-62
-33
-5
26
66
92
89
65
22
-31
-81
-120
-142
-118
-36
53
106
122
116
98
74
44
7
-26
-37
-26
-14
-5
4
14
13
3
-6
-17
-31
-45
-49
-35
-2
41
70
73
63
60
68
64
36
-6
-45
-55
-23
26
54
35
-13
-38
-22
6
14
-9
-42
-59
-59
-56
-64
-85
-97
-82
-36
14
30
5
-25
-45
-75
-116
-144
-126
-67
-13
11
28
67
128
167
164
140
117
105
104
109
109
100
87
75
57
27
-18
-65
-94
-104
-106
-101
-91
-89
-94
-92
-77
-68
-66
-56
-32
-5
3
-11
-29
-27
9
79
152
196
207
185
128
53
-9
-46
-63
-79
-105
-139
-160
-154
-132
-88
-20
53
119
185
229
225
186
127
41
-69
-170
-227
-229
-191
-134
-67
-2
36
38
24
23
44
63
40
-16
-51
-40
7
64
94
88
69
70
97
108
66
-30
-160
-268
-306
-272
-175
-40
73
137
168
171
145
100
51
13
-1
19
54
74
88
127
176
183
134
55
-53
-175
-249
-253
-211
-141
-72
-31
-2
41
92
111
72
9
-37
-61
-71
-69
-54
-20
43
115
140
109
65
23
-23
-56
-63
-65
-93
-144
-172
-160
-134
-146
-230
-330
-337
-198
19
177
240
278
394
599
724
666
491
270
61
-51
-68
-63
-93
-171
-253
-306
-332
-345
-348
-304
-205
-94
-1
46
-17
-208
-413
-497
-445
-326
-193
-48
184
521
798
910
869
647
297
36
-29
-2
28
67
130
185
179
54
-150
-280
-288
-270
-277
-283
-289
-332
-405
-434
-366
-253
-170
-108
45
339
607
680
522
230
-3
-118
-199
-302
-377
-338
-216
-116
-45
93
319
540
646
530
235
0
-73
-97
-174
-288
-352
-338
-282
-201
-99
8
110
226
317
283
135
-5
-63
-64
-78
-138
-207
-228
-197
-167
-154
-128
-77
-18
28
43
34
26
33
51
72
85
88
96
111
118
106
77
33
-17
-77
-164
-267
-323
-304
-247
-162
14
272
460
510
472
391
297
198
95
21
29
81
58
-41
-104
-67
23
52
2
-28
2
27
-19
-115
-192
-177
-63
42
62
15
-84
-222
-316
-322
-291
-273
-264
-231
-156
-47
94
240
307
279
189
68
-23
-44
-20
35
124
201
241
254
214
94
-44
-122
-136
-150
-205
-265
-299
-308
-294
-256
-204
-149
-84
54
291
501
587
578
489
317
133
10
-47
-41
7
34
3
-59
-162
-338
-538
-675
-703
-589
-359
-119
88
307
586
843
876
659
356
122
15
-6
-8
-21
-63
-136
-223
-296
-350
-401
-442
-452
-394
-188
138
376
432
398
324
200
53
-67
-121
-95
-35
1
29
69
82
47
7
-12
-33
-78
-129
-143
-120
-86
-38
22
46
-11
-115
-185
-191
-130
-16
107
192
226
232
241
240
186
91
-2
-88
-176
-226
-176
-57
42
78
73
71
74
57
-8
-96
-123
-68
22
114
147
77
-39
-96
-49
36
72
55
19
-36
-111
-186
-241
-255
-234
-204
-159
-83
-3
47
79
104
102
59
43
146
303
378
320
173
66
95
192
208
99
-49
-135
-149
-138
-136
-128
-84
-29
-6
-9
-11
-23
-55
-99
-162
-241
-284
-262
-196
-120
-51
6
61
101
107
103
132
202
268
246
115
-59
-195
-240
-188
-76
57
179
217
134
7
-83
-132
-136
-87
-9
63
111
124
111
82
40
-12
-78
-128
-85
43
153
200
219
232
227
182
87
-20
-74
-71
-56
-53
-71
-108
-150
-175
-169
-131
-93
-89
-132
-207
-263
-258
-205
-112
19
135
181
158
124
138
170
147
66
-13
-56
-81
-113
-148
-154
-114
-49
32
119
152
93
6
-38
-34
40
195
325
361
344
299
210
101
8
-68
-122
-139
-136
-129
-118
-95
-80
-94
-118
-126
-142
-190
-231
-228
-187
-113
-28
15
9
2
55
162
228
207
143
71
-5
-74
-108
-82
4
102
151
134
2
-237
-421
-448
-378
-255
-71
170
444
676
756
656
461
259
83
-43
-106
-116
-91
-54
-41
-68
-110
-164
-243
-345
-439
-458
-391
-293
-153
90
352
477
418
240
83
61
142
216
208
120
25
-33
-85
-160
-224
-248
-240
-218
-193
-162
-112
-46
4
12
-10
-30
-38
-43
-28
15
60
74
59
42
48
76
99
102
88
66
47
38
29
-1
-60
-122
-148
-118
-47
10
32
36
28
1
-45
-95
-126
-121
-81
-17
68
178
304
399
393
291
163
54
-21
-73
-128
-188
-216
-193
-140
-74
-5
74
174
227
188
95
9
-42
-81
-131
-182
-190
-144
-100
-101
-113
-19
195
330
262
92
-51
-121
-135
-137
-135
-106
-53
2
35
26
-12
-40
-31
4
31
28
13
11
32
46
23
-21
-49
-47
-36
-56
-104
-131
-107
-49
12
48
53
41
21
13
17
5
-40
-110
-154
-127
-41
53
155
267
328
299
217
132
70
41
35
33
25
11
-7
-27
-49
-105
-207
-280
-270
-215
-148
-70
28
161
306
373
297
151
41
-3
-4
1
-14
-55
-104
-142
-155
-141
-117
-99
-92
-94
-101
-103
-115
-161
-200
-185
-126
-34
90
217
318
374
346
248
163
129
116
105
92
68
27
-22
-71
-116
-152
-178
-206
-238
-247
-203
-126
-62
-31
-22
-20
-22
-17
12
58
87
91
93
93
83
68
39
-21
-91
-124
-106
-60
1
71
132
188
239
237
159
68
26
20
15
-4
-36
-75
-108
-111
-79
-41
-15
2
27
63
83
64
17
-33
-75
-102
-113
-112
-101
-80
-54
-28
-3
24
51
54
16
-59
-136
-169
-143
-94
-52
-6
51
105
151
196
219
190
111
9
-89
-161
-171
-105
-8
58
103
171
235
236
177
101
34
-19
-60
-90
-116
-133
-126
-97
-70
-61
-62
-59
-49
-33
-13
6
20
21
16
12
-2
-29
-52
-73
-95
-101
-81
-45
-2
36
61
