12130
12214
12335
12583
12616
12540
12418
12301
12190
12089
12085
12065
12035
12016
12079
12090
12159
12304
12434
12528
12567
12460
12344
12255
12139
11918
11890
11889
11884
11874
11872
11908
11951
12030
12124
12197
12327
12400
12532
12613
12612
12480
12395
12298
12224
12116
12021
11913
11883
11915
11973
12028
11999
12026
12032
12066
12112
12186
12222
12218
12208
12190
12153
12093
12086
12119
12130
12094
12111
12109
12095
12076
12073
12094
12193
12255
12284
12257
12196
12031
12050
12132
12199
12247
12272
12312
12359
12355
12283
12195
12021
11959
11924
11949
11942
11999
12175
12206
12248
12288
12337
12368
12371
12363
12365
12388
12350
12308
12227
12151
12074
12039
12038
12119
12192
12196
12183
12173
12182
12168
12161
12115
12036
11919
11860
11821
11804
11825
11891
11984
12076
12201
12344
12438
12426
12432
12394
12358
12304
12238
12219
12239
12257
12263
12217
12188
12167
12189
12240
12255
12243
12194
12143
12077
12048
11978
11908
11834
11772
11748
11763
11754
11815
11896
11966
12061
12279
12339
12403
12463
12468
12467
12435
12396
12363
12379
12334
12226
12183
12114
12066
12046
12088
12119
12139
12166
12202
12265
12355
12387
12420
12446
12457
12465
12378
12254
12067
11838
11599
11583
11623
11705
11826
11963
12142
12174
12283
12414
12440
12344
12313
12254
12205
12208
12235
12278
12209
12117
12073
12038
12013
11986
11917
11903
11915
12005
12073
12124
12157
12235
12378
12456
12404
12350
12243
12154
12106
12106
12135
12166
12183
12183
12188
12143
12123
12088
12118
12280
12323
12278
12179
12105
12047
12040
12052
12066
12088
12159
12274
12258
12241
12187
12153
12190
12234
12293
12324
12340
12351
12364
12298
12245
12219
12199
12129
12102
12072
12020
11958
11912
11896
11918
11922
11909
11924
11940
11944
11980
12049
12120
12473
12589
12669
12673
12620
12531
12391
12331
12207
12164
12074
11878
11812
11787
11776
11782
11771
11791
11875
12027
12174
12279
12448
12481
12480
12440
12407
12377
12222
12148
12083
12028
12028
11970
11968
11958
11938
11964
12077
12139
12235
12346
12388
12427
12499
12566
12580
12501
12367
12101
12045
12035
12047
12080
12023
12143
12220
12275
12297
12246
12068
12002
11932
11794
11777
11863
11892
11932
11955
12012
12056
12133
12095
12086
12093
12117
12316
12429
12533
12659
12804
12846
12537
12385
12282
12166
12057
11944
11927
11906
11854
11833
11899
11926
11949
11968
11976
12003
12062
12079
12131
12169
12210
12273
12314
12305
12300
12252
12271
12453
12507
12465
12386
12342
12296
12230
12157
12098
12108
12235
12360
12311
12242
12121
11998
11785
11739
11741
11740
11720
11740
11856
11928
12016
12128
12221
12477
12552
12603
12528
12474
12307
12300
12325
12355
12338
12349
12286
12228
12145
12086
12039
12118
12159
12215
12257
12245
12175
12180
12166
12143
12119
12074
11985
11948
11884
11792
11705
11654
11687
11753
11805
11830
11841
12053
12174
12259
12339
12344
12314
12335
12362
12365
12355
12338
12328
12338
12312
12293
12269
12256
12285
12395
12563
12644
12360
12169
12098
12083
12090
12063
12105
12102
12118
12191
12253
12303
12316
12315
12289
12238
12163
11962
11922
11902
11874
11868
11781
11765
11773
11819
11913
12131
12205
12264
12311
12344
12318
12236
12226
12210
12248
12349
12548
12579
12552
12464
12360
12251
12147
12152
12180
12172
12175
12093
12020
11978
11978
12020
12070
12056
11996
11939
11883
11885
11908
12018
12145
12314
12419
12245
12149
12114
12134
12202
12251
12294
12352
12485
12562
12581
12499
12366
12234
12136
12110
12097
11996
11929
11820
11728
11682
11729
11802
11845
11856
11891
11974
12009
12023
12051
12071
12093
12157
12202
12256
12336
12385
12340
12271
12185
12183
12190
12266
12426
12484
12535
12538
12478
12326
12334
12362
12363
12315
12223
12080
11953
11835
11754
11690
11701
11767
11824
11917
11952
12100
12221
12319
12329
12278
12256
12289
12289
12298
12297
12296
12325
12305
12281
12235
12191
12156
12222
12280
12277
12241
12196
12146
12114
12102
12102
12093
12054
12096
12139
12160
12203
12314
12426
12337
12246
12197
12184
12273
12258
12230
12170
12092
12019
11906
11862
11810
11835
11949
12132
12154
12156
12154
12203
12227
12276
12299
12280
12235
12221
12328
12322
12267
12213
12170
12223
12209
12217
12215
12195
12131
12065
12056
12106
12141
12099
11948
11868
11823
11832
11903
12042
12112
12187
12210
12232
12192
12049
11959
11918
11912
11947
12021
12036
12027
12078
12129
12161
12286
12318
12380
12458
12569
12671
12613
12551
12518
12458
12389
12200
12114
12057
12014
11949
11872
11847
11863
11923
11984
12298
12424
12315
12154
12084
12067
12000
11979
12038
12145
12193
12169
12137
12111
12081
12059
12096
12146
12122
12142
12248
12380
12504
12523
12469
12441
12416
12302
12192
12059
11929
11874
11814
11827
11897
11908
11934
12032
12107
12152
12174
12199
12265
12458
12877
12893
12822
12696
12527
12188
12074
12018
11989
11959
11932
11912
11912
11838
11868
11952
11928
11861
11860
11889
11925
11991
12054
12129
12250
12416
12574
12682
12630
12522
12354
12188
11831
11719
11675
11664
11691
11705
11728
11745
11759
11780
11885
12133
12226
12364
12512
12639
12637
12549
12451
12350
12257
12272
12333
12264
12189
12150
12084
11989
11954
11854
11792
11823
11976
12412
12513
12470
12341
12322
12334
12323
12293
12233
12189
12216
12389
12476
12451
12355
12251
12059
11911
11783
11770
11823
11889
11883
11833
11777
11758
11816
11986
12155
12325
12358
12424
12593
12596
12620
12748
12827
12829
12655
12585
12474
12365
12255
11952
11876
11853
11838
11798
11707
11677
11797
11924
12003
11946
11853
11863
11864
11948
12081
12279
12362
12384
12441
12466
12470
12374
12272
12177
12180
12194
12220
12197
12068
11852
11673
11228
11074
11084
11245
11474
11727
12168
12330
12499
12647
12686
12684
12664
12626
12550
12502
12452
12244
12161
12104
12073
12011
11652
11660
11761
11868
11959
12093
12454
12644
12807
12946
13042
13066
13034
12956
12879
12756
12298
12006
11821
11775
11976
12096
12155
12137
12108
12066
12024
11912
11909
11961
11938
11828
11765
11696
11751
11838
11782
11719
11573
11545
11561
11607
11709
11904
12030
12244
12472
12622
12707
12874
12915
12857
12720
12525
12084
11938
11912
11959
12111
12300
12600
12647
12613
12568
12513
12460
12367
12195
12050
11894
11610
11483
11329
11208
11124
11094
11319
11481
11644
11817
12031
12533
12823
13015
13154
13212
13226
12903
12755
12699
12657
12602
12351
12180
12086
12047
11993
11981
11932
11861
11783
11697
11717
12022
12169
12282
12371
12416
12276
12262
12233
12209
12142
12150
12317
12321
12362
12334
12216
11875
11701
11594
11584
11611
11696
12061
12214
12265
12267
12243
12163
12103
12093
12139
12214
12308
12306
12297
12346
12412
12378
12172
12115
12062
12003
11975
11935
11960
12030
12085
12098
12101
11999
11957
11937
11934
11991
12317
12448
12500
12442
12287
12144
12173
12245
12304
12427
12521
12527
12472
12340
12119
11889
11617
11637
11708
11838
12001
12154
12230
12246
12262
12302
12366
12489
12509
12476
12420
12283
12126
12058
12024
12013
12112
12231
12327
12435
12585
12668
12655
12353
12122
11944
11825
11730
11683
11683
11674
11696
11747
11788
11949
12087
12230
12322
12370
12439
12634
12659
12580
12435
12408
12269
12196
12138
12076
12053
12014
11883
11795
11711
11653
11619
11744
11874
12106
12307
12431
12420
12398
12357
12265
12216
12133
12060
12062
12067
12089
12170
12224
12262
12326
12368
12326
12317
12355
12327
12303
12261
12209
12100
12041
12030
12083
12170
12421
12432
12360
12346
12410
12407
12290
12184
12067
11992
12005
12117
12050
11994
11986
11912
11875
11881
11830
11793
11809
11853
11862
11929
11972
12021
12023
12131
12275
12387
12530
12681
12813
12818
12712
12559
12425
12341
12222
12075
11867
11725
11743
11829
12015
12152
12314
12385
12360
12227
12191
12132
12073
12031
12029
12186
12244
12277
14042
15412
10893
10811
11850
14256
22167
9610
11660
14723
21812
21172
9145
2896
545
1507
4348
13566
14948
25459
20545
12297
8238
9850
16262
22733
22829
16083
15684
12135
12319
12587
9073
195
195
8
8
769
2894
4829
6438
7819
9031
10143
11092
11855
12422
12906
13754
14030
14172
14160
14040
13937
13946
13990
14056
14073
14109
14203
14267
14327
14442
14492
14367
14272
14246
14182
14107
14077
14115
14041
13919
13794
13693
13572
13532
13433
13336
13210
13058
12744
12673
12544
12402
12307
12300
12395
12532
12619
12611
12545
12496
12297
12161
12400
13322
11507
11365
11207
11489
12352
11803
12010
12143
12218
12383
12534
12875
12942
13023
13076
13111
13063
13062
12959
12707
12422
12175
11911
11870
11745
11583
11472
11620
11678
11681
11690
11619
11491
11485
11473
11468
11561
11560
11666
11921
12148
12344
12613
13069
13257
13272
13114
12895
12713
12696
12712
12616
12436
12313
12272
12138
12059
11963
11878
12026
11914
11565
11166
10905
10776
10900
11133
11491
11829
12180
12799
13045
13173
13192
13091
12851
12198
11891
11817
11914
12101
11877
11722
11574
11640
11776
12035
12148
12211
12165
12220
12501
12773
12697
12710
12747
12731
12421
12338
12342
12307
12216
11948
11502
11301
11294
11412
11548
11600
11634
11689
11641
11603
11567
11755
11943
12159
12321
12544
13058
13217
13322
13376
13390
13096
12762
12484
12297
12091
11818
11564
11496
11420
11373
11313
11235
11267
11340
11494
11750
11934
12179
12063
12025
12049
12143
12173
12168
12253
12385
12505
12404
12189
11938
11858
11942
12078
12304
12397
12477
12567
12693
12801
12534
12214
11921
11665
11645
11695
11572
11490
11353
11075
11013
11308
11649
11923
12227
12590
13528
13710
13720
13629
13418
12927
12772
12643
12507
12390
11979
11700
11486
11394
11351
11430
11816
12105
12394
12579
12670
12762
12595
12293
11938
11621
11349
11116
11060
11025
11113
11235
11556
11949
12501
13019
13359
13275
13157
13126
13110
13109
12973
12320
12010
11862
11870
11868
11728
11784
11883
12034
12183
12148
11847
11775
11626
11542
11429
11180
11160
11223
11253
11278
11523
11751
11995
12236
12438
12693
12723
12626
12621
12646
12643
12235
12084
11938
11903
11973
12051
12510
12697
12779
12994
13201
13092
12902
12607
12277
11991
11787
11876
11999
12150
12432
12813
13238
13357
13296
13040
12684
11751
11244
10818
10499
10191
9981
9870
9879
10119
11077
11599
12083
12578
13052
13872
14125
14346
14530
14494
13738
13206
12817
12498
12275
12086
11475
11289
11223
11042
10823
10696
10822
10971
11052
11052
11074
11364
11320
11303
11468
11763
12458
12509
12252
12006
11894
12042
12270
12600
12991
13301
13503
13808
13755
13404
12939
12432
11667
11446
11270
11200
11250
11462
12149
12327
12522
12945
13401
14323
14534
14457
14199
13778
13241
12149
11745
11450
11173
10923
10613
10631
10704
10747
10731
10933
11022
10982
10888
10801
10830
11231
11509
11872
12259
12557
12818
12989
13193
13374
13584
13887
13977
13606
13156
12879
12805
12483
12213
11877
11590
11337
11096
11018
11074
11209
11390
11622
12234
12359
12151
11926
11706
11492
11625
11730
11714
11870
12203
11935
11430
10961
10582
10292
10324
10925
11921
13037
14088
15240
15380
15332
15082
14951
14917
14500
13949
13186
12455
11896
10997
10492
10106
9770
9610
9694
10127
10683
11955
12662
13133
13415
13612
13583
12604
12266
12204
12404
12483
12480
12282
11940
11457
10707
9823
9202
8936
9547
9905
10165
10352
10517
10943
11651
12552
15131
16538
17608
17896
17454
16395
15524
14516
13446
12402
11536
10801
10596
10467
10464
10559
10749
10808
10789
10784
10890
10909
10626
10309
9810
9341
9135
9204
9434
9627
9853
10179
10559
11352
12128
13251
14521
15422
15585
15591
15472
15034
14394
13887
14245
14739
15045
15245
15176
13230
11790
10704
10071
9750
9588
9264
8911
8789
8906
9311
9924
10601
12389
13070
13558
13681
13615
13603
13074
12818
12457
12349
12336
12451
12332
12048
11749
11614
11518
11795
12084
12253
12344
12276
12013
11731
11504
11517
11916
13191
13663
14296
14777
14712
14060
12342
11679
11135
10710
10465
10232
10265
10495
10798
11232
12158
12435
12537
12415
11929
11205
10336
10463
10894
11309
11543
11937
12465
13142
13627
13577
13218
12972
13037
13305
13376
13271
12788
12842
13058
12758
11945
11272
10858
10940
10995
11035
11093
10617
10227
9941
10186
11428
12778
12094
11198
10624
10253
10004
9656
9601
9738
9997
11893
13395
15182
17115
19040
20248
18382
16009
13902
12480
11784
10962
10952
11142
11127
10513
9811
9317
10028
10636
11343
12386
13345
14134
15881
16681
17526
18554
19705
20926
19636
17056
14105
11352
8694
6466
5193
4359
4097
4195
5079
6481
7932
9412
11306
13312
14529
14900
14724
11868
9321
7420
6449
6291
7245
8977
11145
13365
15523
17313
19306
20072
20653
20753
19952
18405
14800
13198
11711
10354
9478
9077
8866
8728
8577
8463
8271
8135
8147
7993
7807
7680
7619
7794
8231
8345
7947
8059
9256
10747
11390
11427
11476
11797
12950
14446
16726
19589
22138
23575
21919
19284
16527
14206
12390
10493
10103
10041
10155
10143
9786
9671
9689
9603
9477
9389
9064
8250
7512
7258
7561
8198
8820
9424
10088
10704
11135
11610
12806
13307
14201
15829
17289
17798
17317
17411
17321
16740
16139
15630
15375
15045
14663
14138
13145
9798
8369
7469
7024
6893
6992
7088
7251
7717
8416
9480
10619
11659
12643
13405
14079
13590
12841
12236
12109
12013
10774
10181
9708
9418
9401
9897
10908
12442
14353
19434
21311
21859
21118
19385
14299
12360
11111
10510
10267
9340
8821
8485
8487
8830
9357
9629
9637
9381
9246
9395
9675
9956
10259
10390
10439
10545
10624
11694
12750
14058
14756
14604
14274
14624
14907
14905
15164
15610
14641
13278
12252
11929
11936
12456
12908
13101
12669
11928
10281
9838
9731
9754
10032
10740
11700
12332
12706
13523
13638
13566
13246
12554
11191
10810
10558
10309
10200
10701
10996
11323
11686
11980
12338
13371
13539
13737
13556
12822
10748
9837
9128
8820
9268
10710
13023
15013
15921
16523
16553
15689
13973
12108
10702
9099
8684
8734
9378
10792
12316
13597
14563
15246
15723
15474
14770
13863
13111
11765
11131
10277
9472
9112
9157
9531
10069
10675
12315
13084
13770
14239
14544
14688
14205
13273
11886
10395
9242
8735
8531
8515
8557
8561
8766
9303
11343
12935
14278
15254
15979
16589
17004
16527
15811
14669
13257
10235
9330
8681
8121
7599
7638
8305
9624
11424
13458
15378
16685
17362
16947
16366
15503
14382
12437
11844
11256
10530
9945
9545
9316
9159
9220
9537
9995
10541
11784
12131
12350
12448
12471
12462
12869
13195
13152
12718
11955
9052
8257
8280
8730
9154
9407
9717
10283
11419
12733
14537
16519
18126
17289
15952
14423
12844
10805
10568
10892
11959
13416
14873
16731
16922
16561
15544
14289
11477
10531
9919
9675
9719
9799
9928
10229
10668
10968
11159
11329
11530
11634
11611
11521
10965
10494
10032
9591
9422
9609
9855
10166
10695
12422
13525
14673
15431
15692
14691
13434
12180
11303
10769
10289
8788
8073
7847
8154
9102
10406
11883
13116
13899
14598
15788
16152
16724
17236
16769
14430
13770
13476
13504
13443
13006
12814
12650
12293
11904
11604
11050
10887
10704
10408
10188
10307
10363
10419
10517
10557
10642
11825
12277
12272
12042
11776
11380
11110
11047
11243
11499
12156
12809
13730
14656
15530
16146
15461
14378
13385
12598
11795
9090
7484
6408
6003
6167
6651
7296
8007
8982
10463
12518
15205
18159
21100
23346
21649
18997
16484
14456
11707
10964
10509
10226
10092
9966
9850
9795
9793
9800
9936
10153
10475
10763
11034
11248
11345
11355
11450
11598
11627
11623
11672
11713
11508
11265
11038
10900
11028
11172
11382
11735
12232
13113
13546
14212
14753
14804
14223
13949
13675
13459
13103
12363
10850
10611
10805
11229
11654
12250
12847
13407
13685
13656
13431
12323
11704
11170
10807
10695
10840
10922
10942
10941
11091
12338
12718
12949
13062
13119
13264
13299
12720
12217
11723
10892
9429
9180
8995
8839
9023
9591
10619
12252
14309
16571
18450
19729
18611
16984
15447
14092
13056
11675
11038
10478
10093
9938
9865
9786
9645
9466
9357
9420
9617
9784
9956
10171
10384
10781
11567
12768
14239
16286
16386
15973
15352
14663
12846
12199
11852
11646
11533
11421
11408
11385
11387
11434
11456
11480
11558
11609
11581
11548
11636
11698
11749
11780
11814
11793
11807
11880
11930
11954
11934
11737
11615
11610
11694
11904
12214
12251
12289
12376
12359
12260
12439
12557
12709
12914
13047
12773
12595
12524
12504
12447
12270
11898
11813
11723
11670
11672
11461
11303
11255
11385
11729
12108
12836
12949
12881
12768
12696
12007
11539
11090
10633
10143
9778
10050
10421
11083
11910
12896
13917
15505
16103
16728
16894
16220
14198
13293
12520
11729
11028
10511
9942
9835
10006
10311
10771
11225
11658
12352
12505
12513
12568
12857
13079
12934
12929
12991
13015
12801
11904
11562
11440
11532
11739
12347
12621
12795
12704
12253
11505
11469
11394
11259
11136
11128
10967
11016
11146
11286
11481
11913
12174
12416
12662
12871
12996
12903
12818
12732
12663
12611
12558
12455
12219
11963
11755
11717
11816
11897
11910
11873
11784
11676
11699
11781
11881
12041
12549
12621
12627
12576
12452
12230
12022
12044
12098
12038
11789
11272
11274
11310
11280
11272
11211
11197
11187
11032
10761
10739
11962
12945
13847
14220
14052
13587
13510
13414
13335
13573
13949
14747
14690
14366
13838
13145
12137
11763
11476
11204
10922
10473
10107
10378
10751
11122
11452
12260
12221
11982
11943
12340
13493
13946
14320
14393
14124
13634
12574
12230
11866
11545
11336
11121
11079
11067
11010
10920
10842
10704
10699
10780
10966
11113
11228
11285
11405
11610
11855
12084
12643
12883
12918
12901
13032
13656
14006
14083
13723
13240
12817
12688
12522
12334
12086
11899
11690
11662
11707
11780
11832
11809
11797
11765
11729
11691
11669
11742
11782
11831
11915
11970
12038
12027
12004
11977
11948
11860
11849
11864
11893
11924
12027
12238
12340
12435
12490
12491
12403
12322
12320
12361
12396
12484
12694
12701
12623
12521
12463
12484
12408
12287
12154
12052
11891
11884
11901
11926
11916
11909
11871
11824
11757
11709
11659
11404
11311
11238
11203
11288
11421
11835
12180
12525
12833
12914
13063
13226
13420
13594
13636
13554
13239
13018
12728
12361
11935
11468
11340
11219
11224
11355
11639
11743
11770
11766
11711
11764
12083
12327
12552
12765
12916
13037
13087
13095
12944
12825
12809
12629
12466
12352
12291
12271
12125
11910
11761
11707
11790
11904
11947
12021
12094
12123
12053
11869
11782
11756
11694
11677
11613
11592
11580
11599
11638
11701
11900
12018
12159
12290
12414
12221
12083
12004
11936
11927
11943
12012
12061
12126
12251
12357
12492
12519
12505
12472
12519
12609
12580
12498
12393
12280
12147
11880
11788
11754
11751
11776
11758
11775
11794
11816
11863
11954
12295
12433
12522
12526
12484
12477
12550
12642
12711
12727
12525
12412
12340
12365
12355
12265
11922
11770
11696
11659
11640
11641
11623
11611
11613
11642
11772
12104
12332
12550
12739
12883
12864
12821
12802
12847
12787
12494
12352
12237
12096
11964
11875
11682
11593
11533
11528
11555
11565
11519
11528
11535
11575
11567
11790
12030
12403
12708
12886
13207
13201
13161
13149
13157
13040
12656
12421
12224
12103
12060
11929
11896
11917
11919
11892
11888
11857
11870
11890
11939
11992
12185
12191
12135
12073
12035
11998
11926
11868
11800
11804
11748
11683
11708
11703
11736
11818
12148
12322
12468
12561
12592
12569
12525
12572
12597
12614
12661
12803
12758
12675
12502
12321
12023
11896
11790
11746
11765
11821
11913
11951
12004
12024
12036
12129
12182
12259
12293
12251
12169
11986
11925
11900
11870
11879
11970
12075
12147
12194
12217
12059
11988
11971
11984
12008
12075
12179
12258
12327
12343
12312
12391
12424
12411
12368
12343
12325
12256
12170
12130
12102
12061
12004
12037
11979
11906
11891
11946
12007
12027
12046
12055
12104
12241
12392
12524
12595
12651
12704
12676
12610
12497
12395
12357
12181
12037
11908
11837
11799
11646
11593
11565
11575
11628
11735
11810
11916
12016
12101
12174
12377
12482
12581
12626
12652
12688
12715
12740
12752
12733
12697
12586
12489
12310
12208
12073
11852
11806
11797
11785
11771
11781
11818
11845
11911
12004
12080
12179
12146
12069
12032
12032
11991
11950
11903
11918
11974
12053
12261
12359
12416
12409
12322
11956
11854
11921
12049
12172
12241
12228
12195
12154
12119
12052
11866
11799
11824
11925
12064
12198
12258
12336
12459
12629
12774
12747
12686
12664
12580
12489
12252
12124
12026
11970
11934
11860
11750
11754
11779
11807
11865
12154
12175
12147
12073
12026
12025
11962
11961
12008
12076
12136
12323
12396
12462
12452
12460
12494
12510
12524
12537
12523
12491
12290
12144
12051
12043
12048
11953
11962
11911
11879
11862
11860
11855
11834
11756
11761
11881
12068
12139
12183
12228
12269
12375
12338
12284
12291
12273
12277
12343
12353
12358
12339
12326
12395
12411
12297
12238
12244
12273
12280
12247
12205
12189
12163
12057
12018
12011
11997
11954
11969
12119
12146
12163
12121
12057
11889
11809
11772
11775
11806
11921
12024
12141
12210
12250
12209
12130
12150
12184
12211
12241
12344
12354
12339
12261
12176
12111
12105
12137
12138
12209
12298
12407
12475
12503
12529
12563
12510
12455
12410
12296
12128
11983
11668
11556
11518
11515
11527
11668
11786
11908
12033
12154
12207
12418
12414
12368
12304
12273
12277
12224
12166
12095
12017
11978
12018
12135
12268
12297
12303
12323
12271
12237
12258
12243
12228
12279
12378
12533
12725
12847
12696
12582
12517
12460
12435
12324
12241
12176
12109
12078
12068
12019
12013
11995
11902
11767
11681
11678
11660
11628
11666
11799
11825
11841
11889
11931
12017
12102
12193
12289
12352
12383
12355
12280
12237
12167
12114
12088
12129
12209
12321
12390
12413
12366
12279
12185
12102
12058
12041
12055
12090
12142
12181
12196
12179
12189
12243
12269
12306
12443
12455
12415
12385
12308
12177
12030
12058
12102
12121
12133
12116
12129
12093
12136
12157
12148
11928
11837
11818
11813
11821
11821
11848
11889
12018
12164
12389
12444
12411
12414
12382
12343
12350
12340
12342
12415
12389
12037
11889
11775
11606
11436
11337
11481
11748
12062
12392
12701
12913
12881
12861
12861
12815
12659
12526
12406
12260
12151
12078
11997
12023
12064
12120
12191
12264
12284
12272
12245
12200
12160
12044
12016
11959
11911
11892
11794
11653
11597
11574
11578
11664
11778
11903
12080
12259
12405
12527
12575
12548
12455
12399
12314
12296
12266
12240
12176
12158
12135
12170
12241
12352
12401
12376
12322
12326
12315
12303
12344
12278
12202
12126
12077
12041
11917
11880
11821
11762
11748
11732
11752
11751
11799
11833
11927
12144
12274
12458
12679
12927
13284
13142
12856
12616
12379
12190
11832
11709
11678
11674
11679
11514
11382
11310
11374
11535
11887
12010
12104
12196
12266
12306
12554
12609
12639
12643
12634
12515
12441
12325
12279
12249
12245
12219
12148
12123
12236
12386
12531
12559
12547
12512
12418
12331
12111
12029
11964
11912
11818
11689
11614
11575
11601
11640
11676
11659
11639
11672
11782
11954
12325
12633
12875
12993
12916
12741
12712
12611
12517
12460
12394
12160
12019
11914
11827
11753
11747
11775
11838
11924
11970
12061
12138
12235
12334
12517
12613
12628
12594
12534
12356
12176
11942
11857
11751
11665
11616
11574
11606
11658
11651
11669
11762
11939
12080
12282
12486
12559
12523
12540
12631
12707
12759
12890
12971
12872
12730
12562
12364
12084
11961
11866
11785
11688
11575
11541
11481
11455
11459
11601
11972
12154
12261
12299
12259
12243
12327
12356
12370
12348
12345
12367
12317
12304
12266
12211
12072
11995
11991
12082
12199
12276
12420
12440
12418
12368
12322
12202
12159
12127
12072
12022
12007
12091
12161
12231
12216
12176
12103
12007
11887
11800
11807
11884
11984
12068
12154
12228
12239
12278
12369
12452
12538
12559
12446
12274
12091
11962
11880
11884
12024
12114
12219
12324
12342
12296
12243
12352
12589
12769
12799
12637
12566
12522
12468
12400
12148
12020
11881
11772
11688
11510
11394
11287
11252
11187
11190
11563
11834
12164
12453
12600
12847
12935
13037
13076
13086
13004
12633
12359
12116
11870
11695
11580
11546
11476
11424
11445
11482
11545
11727
11865
11857
11806
11919
12096
12258
12416
12546
12689
12849
13026
13145
13215
13206
12906
12692
12508
12325
12162
11950
11780
11617
11441
11313
11295
11266
11229
11249
11336
11488
11799
11892
11950
12040
12083
11991
12021
12051
12171
12336
12430
12477
12505
12563
12605
12588
12579
12591
12612
12556
12553
12575
12567
12531
12576
12599
12575
12491
12479
12489
12519
12596
12492
12312
12167
12030
11921
11877
11800
11766
11733
11704
11741
11825
11859
11937
12027
12059
12140
12273
12271
12250
12241
12182
12001
11895
11797
11702
11623
11602
11717
11895
12060
12144
12286
12632
12759
12864
12869
12804
12619
12476
12359
12326
12263
12152
12029
12083
12240
12407
12553
12775
12902
13020
13067
13013
12827
12120
11749
11339
10968
10682
10423
10390
10444
10600
10818
11276
11528
11785
12052
12323
12534
12832
12957
13052
13089
13118
13062
12892
12719
12604
12540
12443
12164
12156
12190
12259
12359
12526
12435
12291
12170
12065
11869
11815
11809
11807
11865
11899
11962
11981
12021
12040
12038
12113
12165
12205
12174
12125
12089
11965
11901
11965
12061
12067
12220
12288
12324
12359
12403
12412
12526
12548
12472
12357
12272
12116
12034
11968
11872
11817
11751
11756
11801
11858
11963
12114
12376
12498
12540
12495
12411
12365
12327
12192
12065
12039
12061
12369
12535
12667
12752
12838
12788
12732
12722
12678
12611
12478
12391
12258
12076
11896
11734
11461
11321
11264
11281
11346
11543
11640
11725
11794
11847
11875
11967
12110
12188
12173
12189
12298
12319
12342
12372
12328
12211
12166
12134
12139
12087
11923
11682
11668
11696
11803
11935
12043
12108
12161
12212
12282
12338
12347
12318
12265
12250
12361
12388
12323
12316
12340
12367
12315
12162
12201
12221
12304
12442
12679
12709
12647
12579
12555
12493
12419
12377
12299
12161
12042
11745
11674
11697
11758
11800
11971
12076
12181
12260
12292
12229
12154
12167
12259
12410
12601
12924
13040
12958
12748
12591
12416
12298
12128
11923
11707
11525
11264
11288
11393
11595
11891
12508
12714
12898
12955
12933
12825
12509
12240
11940
11702
11494
11167
11102
11063
10974
10994
11008
11164
11372
11653
11879
12109
12666
12912
13087
13141
13143
12991
12802
12616
12467
12335
12168
11854
11768
11718
11708
11784
11940
11980
12016
11994
11973
12031
12170
12178
12222
12242
12311
12384
12431
12467
12432
12428
12344
12277
12233
12244
12261
12343
12294
12312
12416
12548
12683
12939
13015
12935
12678
12333
12087
11845
11801
11845
11933
12002
11977
11979
12019
12075
12128
12195
12249
12241
12165
12025
11921
11856
11869
11960
12006
12074
12319
12426
12409
12334
12175
11952
11533
11387
11278
11240
11221
11183
11177
11281
11449
11558
11715
12257
12566
12865
13229
13447
13657
13685
13604
13436
13226
12739
12543
12312
12092
11876
11669
11468
11445
11465
11534
11633
11715
11702
11705
11761
11875
11965
12051
12179
12322
12483
12531
12452
12410
12307
12163
11979
11817
11828
11850
11914
12012
12023
12102
12177
12298
12513
12685
12758
12653
12539
12494
12458
12485
12659
12613
12498
12356
12263
12201
12167
12083
12007
11939
11970
12121
12136
12069
12040
12100
12210
12142
12121
12110
12118
12013
11950
11879
11810
11757
11699
11614
11628
11688
11684
11676
11738
11816
11924
12054
12187
12325
12377
12377
12394
12442
12500
12491
12503
12477
12486
12551
12501
12329
12071
11909
11875
11930
12014
12050
12135
12163
12188
12265
12279
12222
12116
12032
12028
12184
12315
12419
12465
12527
12416
12345
12277
12291
12292
12268
12145
11986
11840
11751
11736
11715
11684
11695
11761
11816
11958
12015
12030
12116
12208
12230
12291
12301
12299
12297
12301
12279
12348
12487
12563
12558
12572
12534
12449
12425
12360
12338
12484
12509
12490
12531
12485
12280
12125
11967
11791
11611
11527
11582
11697
11813
11886
11949
12202
12238
12223
12186
12144
12114
12185
12264
12296
12266
12171
12084
12124
12151
12116
12015
11763
11694
11716
11738
11756
11809
12119
12408
12667
12840
12874
12631
12431
12364
12272
12116
11954
11653
11591
11634
11692
11710
11909
12025
12104
12179
12324
12407
12294
12247
12175
12126
12149
12237
12269
12339
12499
12634
12746
12695
12640
12599
12522
12417
12313
12309
12283
12278
12208
12013
11919
11830
11760
11700
11669
11689
11665
11634
11615
11673
12020
12227
12495
12695
12836
12850
12786
12678
12616
12638
12742
12832
12758
12679
12561
12439
12110
11995
11938
11931
11922
11981
11772
11628
11554
11599
11645
11405
11196
11095
11064
11065
11138
11413
11600
11868
12127
12345
12596
12600
12496
12320
12201
12055
12011
12041
12152
12280
12437
12660
12758
12835
12848
12757
12579
12494
12429
12344
12277
12272
12287
12256
12263
12302
12280
12152
12094
12055
12017
12006
12048
12037
11991
11957
11952
11985
12112
12163
12185
12241
12330
12468
12420
12352
12281
12210
12198
12433
12561
12562
12537
12523
12495
12444
12401
12296
12119
11924
11621
11579
11536
11490
11424
11486
11547
11662
11739
11859
12134
12282
12396
12473
12575
12626
12571
12476
12337
12154
11981
11794
11710
11783
11890
12037
12242
12504
12561
12597
12612
12597
12586
12538
12462
12361
12264
11940
11850
11811
11760
11715
11673
11641
11652
11666
11649
11761
11980
12044
12048
12071
12135
12253
12476
12501
12469
12404
12367
12386
12429
12501
12531
12524
12434
12328
12219
12157
12142
12129
12202
12188
12144
12043
11954
12044
12119
12113
12150
12162
12158
12258
12267
12331
12391
12409
12398
12377
12267
12174
12080
12022
11843
11837
11908
11970
11995
11956
11944
11921
11878
11832
11860
11878
11893
11998
12072
12112
12286
12399
12566
12753
12899
13033
12981
12781
12640
12587
12636
12564
12493
12447
12374
12323
12273
12191
11995
11788
11537
11170
11056
10997
10962
11002
11101
11245
11352
11530
11783
12021
12345
12503
12626
12693
12718
12768
12831
12703
12537
12490
12475
12402
12357
12345
12344
12302
12216
12041
12004
12026
12098
12138
12133
12118
12089
12081
12153
12261
12191
12126
12063
11994
11926
11943
12022
12145
12306
12432
12529
12476
12398
12338
12287
12135
11959
11957
11981
11933
11913
11925
12003
12013
11985
11989
12138
12302
12511
12660
12652
12568
12249
12113
12037
12024
12060
12067
12065
12054
12026
12001
11994
12147
12304
12501
12693
12806
12742
12681
12640
12523
12420
12294
11808
11643
11601
11530
11460
11590
11647
11606
11536
11487
11604
11809
12043
12247
12379
12508
12534
12472
12361
12266
12264
12361
12419
12444
12470
12510
12540
12502
12406
12339
12271
12167
12134
12207
12296
12401
12426
12118
11944
11884
11965
12044
12132
12146
12288
12369
12336
12225
12147
12075
12023
11981
11924
11845
11643
11642
11711
11866
12019
12111
12101
12081
12020
12029
12146
12185
12240
12257
12232
12130
11984
12004
12115
12296
12527
12892
12846
12719
12554
12345
12189
11999
11936
11876
11903
11919
11997
12062
12129
12251
12423
12475
12455
12441
12409
12362
12284
12065
11933
11876
11762
11663
11661
11782
11856
11920
12040
12181
12414
12374
12288
12215
12194
12203
12268
12318
12224
12036
11868
11744
11865
12079
12312
12515
12505
12393
12365
12364
12411
12385
12342
12306
12184
11983
11756
11516
11518
11625
11811
12098
12599
12837
13009
13064
13081
13048
12720
12525
12342
12187
12083
11808
11566
11432
11391
11367
11446
11644
11720
11854
12035
12232
12645
12654
12527
12384
12317
12355
12394
12463
12428
12234
12038
11798
11708
11668
11737
11870
11946
11973
12018
12055
12016
12027
12106
12139
12108
12089
12066
12114
12252
12373
12472
12601
13033
13049
12951
12812
12660
12575
12396
12259
12087
11926
11810
11762
11734
11640
11665
11735
11876
12074
12160
12195
12171
12093
11910
11900
11956
12017
12046
12094
12093
12106
12078
12059
11990
11909
11887
11927
12003
12103
12366
12409
12399
12346
12297
12205
12093
12088
12070
12020
12033
12193
12312
12408
12446
12438
12445
12416
12337
12268
12357
12461
12564
12498
12388
12274
12223
12220
12263
12208
11992
11889
11888
12020
12134
12164
12165
12081
11791
11710
11694
11741
11725
11648
11793
11952
12101
12158
12198
12316
12453
12535
12597
12619
12653
12615
12508
12386
12249
12201
12187
12167
12140
12108
12046
12031
12094
12162
12213
12220
12227
12338
12321
12324
12333
12361
12287
12255
12233
12272
12329
12302
12100
11981
11872
11764
11742
11776
11798
11881
11935
11958
11949
11915
11900
11896
11911
11945
12048
12051
12049
12018
11963
11889
11900
11940
12003
12110
12297
12686
12973
13239
13257
13080
12590
12487
12437
12417
12376
12102
11948
11829
11728
11675
11674
11761
11883
11922
11931
11906
11822
11794
11795
11784
11793
11866
12107
12187
12223
12230
12189
12160
12154
12216
12327
12356
12417
12501
12614
12739
12847
12915
13021
13051
12930
12805
12631
12212
12055
11954
11860
11730
11620
11538
11570
11632
11691
11724
11844
11907
11953
12025
12051
12136
12232
12199
12152
12123
12125
12140
12190
12249
12261
12234
12208
12206
12197
12199
12207
12184
12114
12124
12131
12132
12106
12063
11990
11946
11920
11954
11992
12073
12095
12128
12107
12152
12368
12433
12527
12551
12601
12522
12363
12199
12058
11966
11917
11994
12049
12122
12190
12279
12257
12111
11967
11883
11855
11900
11953
11955
11953
11994
12017
12043
12057
12123
12179
12191
12269
12489
12550
12534
12503
12390
12272
12334
12415
12419
12391
12173
12054
11954
11944
11982
12032
11908
11885
11891
11919
11929
11917
11931
11953
12000
12044
12047
12270
12419
12534
12551
12478
12179
12087
12049
12047
12068
12212
12349
12472
12648
12813
12904
12863
12729
12624
12602
12633
12298
12025
11786
11697
11703
11723
11813
11935
11983
12007
12000
12011
12055
12027
11959
11859
11767
11522
11482
11404
11402
11496
11755
11880
12011
12142
12252
12482
12545
12545
12577
12669
12767
12931
13075
13152
13043
12838
12497
12354
12226
12155
12102
12032
11846
11845
11873
11873
11835
11803
11776
11774
11748
11740
11719
11742
11775
11804
11870
11853
11790
11764
11748
11717
11764
11921
12124
12357
12567
12740
12897
13125
13194
13240
13174
12937
12205
12076
12085
12125
12187
12182
12119
12036
11915
11790
11716
11647
11617
11624
11592
11607
11678
11784
11884
11997
12118
12220
12376
12377
12457
12553
12549
12296
12204
12148
12158
12223
12312
12447
12587
12757
12864
12903
12706
12616
12497
12320
12132
11833
11725
11592
11474
11418
11388
11339
11312
11423
11685
12002
12392
12525
12619
12767
12843
12877
13120
13152
13099
12934
12737
12304
12162
12082
12019
11917
11792
11826
11805
11775
11786
11791
11609
11361
11120
11067
11098
11321
11508
11626
11671
11694
11768
12179
12476
12810
13079
13266
13606
13702
13655
13510
13327
13135
12731
12531
12358
12171
11984
11643
11459
11236
11124
11095
11213
11316
11432
11488
11524
11480
11455
11432
11429
11491
11571
11629
11607
11681
11870
12175
12566
13318
13649
13960
14239
14508
14493
14182
13681
13129
12715
12108
11839
11640
11514
11391
11358
11533
11582
11612
11648
11673
11642
11593
11456
11185
10881
10688
10833
10962
11117
11212
11283
11557
11769
11995
12250
12683
13231
14194
14308
14140
13923
13792
13638
13510
13378
13205
13069
12693
12394
12103
11879
11693
11558
11396
11305
11242
11120
10977
10717
10612
10595
10614
10636
10723
10723
10727
10847
11059
11427
12551
13043
13350
13549
13730
13963
13950
13771
13516
13297
13191
12859
12775
12850
12974
13056
12988
12892
12670
12371
12020
11815
11490
11336
11261
11163
11123
11121
11126
11188
11215
11174
11135
11242
11336
11390
11531
11708
12284
12591
12914
13184
13360
13670
13759
13725
13408
12798
12160
11412
11178
11012
10929
10898
11223
11477
11649
11758
11971
12217
12812
13142
13480
13795
13868
13221
12928
12733
12465
12138
11467
11159
11026
11056
11147
11219
11670
11982
12226
12502
12734
12998
12911
12769
12611
12367
12018
11538
11401
11257
11170
11044
10669
10543
10412
10394
10538
11056
11152
11207
11370
11827
12459
14067
14817
15490
16069
16489
16034
15448
14884
14351
13896
13503
12399
11882
11310
10749
10202
9283
9068
8918
8847
8731
8534
8547
8692
8924
9298
9867
10490
11114
11697
12324
12912
14226
14525
14490
14188
13751
13528
13551
13605
13786
14264
15798
16148
16130
15920
15686
15456
14434
13704
13031
12377
11716
10594
10194
9927
9990
10166
10263
10193
10011
10202
10248
10181
10163
10351
10801
10924
10823
10616
10402
10580
10878
11143
11445
11703
11772
12049
12473
12763
13109
13691
14876
15129
14917
14474
14127
13565
12395
11835
11350
11244
11396
11989
12041
11676
11065
10556
10549
11013
11300
11545
12122
12658
12860
12829
12464
12125
12113
12775
13227
13680
13930
14179
14361
13847
13011
12219
11673
11360
11535
11829
12194
12437
12694
12916
12646
12181
11505
10603
9571
8769
8373
8407
8899
10304
11022
11918
12700
13221
13922
16114
16933
17419
17389
16734
14398
12930
11608
10696
10257
9990
9811
9731
9585
9424
9372
9583
10013
10369
10458
10245
10148
10072
9921
9988
10499
11461
12534
13253
14031
15864
16382
16486
15874
15012
12785
11475
10621
10246
10328
10833
12132
12888
13241
13293
13263
12403
11602
10958
10690
10764
12223
13033
13415
13476
13405
13338
13141
13064
12754
12243
11823
11075
10869
11017
11524
12272
13022
13113
12489
11578
10399
9364
9105
9142
9211
9318
9334
9495
10242
12723
14123
15722
17360
18625
18520
17401
16025
14794
13847
12835
12314
11389
10371
9762
9538
9483
9385
9239
8983
8763
8694
8670
8829
9228
9664
10139
11743
12907
13792
14355
14520
14346
14162
13790
13286
12736
12211
11841
11884
12075
12432
12768
12717
12734
12779
12848
12726
11206
10392
10075
10149
10428
10869
12613
13408
14163
14688
14725
13458
13027
12551
11667
10738
10314
10712
11261
11834
12124
12145
12542
13079
13864
14549
14811
13900
13147
12197
11448
10966
10633
10349
10461
10744
11218
11776
12797
13343
13580
13436
13121
12775
12100
11848
11550
11244
10805
10397
10536
10811
11024
11065
10921
10479
10335
10239
10371
11007
13317
13662
13563
13852
14651
15711
15430
14633
13612
12951
12681
11591
11121
11024
11163
11531
12458
12845
13270
13585
13592
13323
11827
11261
11033
11251
11577
11950
12066
12130
12169
12145
12072
12209
12449
12695
12815
12673
12087
11976
11952
11924
11834
11559
11378
11262
11259
11212
11210
11767
11887
11805
11738
11836
12291
12577
12887
12996
12828
12524
12078
11953
11707
11556
11565
12252
12759
13058
13005
12777
12763
12742
12550
12304
12051
11821
11699
11735
11754
11861
11913
11811
11801
11883
12067
12252
12410
12234
12140
11922
11806
11752
12030
12173
12261
12300
12376
12771
12917
12994
13066
13089
13078
12863
12423
12085
11902
11883
12020
12185
12315
12408
12513
12575
12199
11900
11639
11435
11370
11459
11524
11575
11618
11633
11689
11774
11909
12068
12186
12312
12614
12649
12596
12549
12555
12537
12438
12271
12097
11974
11929
11863
11762
11729
11720
11716
11896
11979
12052
12034
11935
11871
11783
11650
11407
11177
11120
11011
10894
10994
11321
11782
12841
13194
13481
13661
13877
14181
14485
14498
14440
14127
13603
12651
12496
12432
12445
12457
12356
11797
11498
11315
11211
11184
11170
11171
11230
11276
11332
11546
11657
11743
11779
11778
11775
12012
12297
12557
12682
12713
12806
12661
12369
12056
11903
11819
11736
11749
11797
11853
11889
11888
11869
11809
11731
11698
11753
12182
12432
12605
12756
12808
12508
12388
12286
12380
12481
12507
12387
12288
12236
12187
12152
12078
12072
12126
12204
12272
12284
12178
12115
12040
11994
11976
11909
11865
11883
11894
11980
12234
12288
12163
11981
11896
11733
11669
11654
11639
11630
11676
11952
12142
12287
12343
12337
12464
12531
12612
12739
12812
12834
12646
12490
12277
12080
11934
11728
11682
11603
11461
11533
11757
11946
11618
11317
11239
11373
11991
12471
12965
13430
13751
13782
13641
13498
13323
13118
12929
12594
12412
12215
12094
12041
11929
11821
11719
11615
11518
11477
11403
11284
11220
11208
11202
11160
11236
11365
11525
11694
12027
12188
12296
12410
12485
12500
12381
12396
12550
12676
12699
12659
12713
12812
12827
12638
12371
11851
11648
11605
11619
11575
11730
11889
12063
12228
12397
12689
12833
12935
12966
12934
12851
12497
12302
12120
11891
11703
11727
11798
11774
11722
11678
11658
11798
11842
11910
12075
12281
12711
12882
12958
12880
12717
12610
12386
12189
11954
11775
11633
11393
11291
11234
11136
11070
11141
11277
11439
11638
11902
12188
13004
13252
13314
13298
13267
13428
13367
13164
12888
12671
12523
12375
12349
12223
12046
11911
11833
11850
11846
11815
11786
11670
11576
11542
11563
11631
11684
11923
12030
12147
12259
12329
12240
12161
12092
12051
12035
12006
11938
11986
12087
12181
12241
12313
12318
12313
12312
12345
12320
12282
12288
12253
12165
12074
11903
11893
11971
12068
12203
12205
12186
12199
12258
12324
12391
12482
12445
12384
12255
12130
11973
11939
11926
11937
11940
11862
11630
11591
11673
11827
12029
12380
12596
12855
13050
13114
12922
12711
12537
12424
12359
12254
11942
11792
11740
11713
11699
11700
11727
11806
11988
12125
12174
12155
12093
11946
11826
11853
12022
12109
12221
12328
12386
12486
12389
12316
12353
12444
12486
12515
12548
12542
12500
12321
11925
11819
11795
11874
12035
12202
12457
12533
12585
12506
12324
12006
11908
11858
11782
11739
11739
11944
12064
12211
12308
12331
12226
12203
12236
12302
12271
12104
12038
12011
11986
11977
11977
11892
11858
11879
11916
11940
11845
11758
11787
11914
12105
12280
12573
12660
12692
12735
12745
12729
12655
12549
12433
12353
12143
12052
12008
11961
11918
11884
11872
11905
11889
11846
11786
11699
11624
11637
11710
11793
11891
12119
12187
12241
12320
12398
12510
12501
12484
12445
12446
12367
12274
12302
12344
12370
12399
12475
12559
12660
12741
12686
12377
12182
12037
11989
11928
11851
11781
11754
11758
11781
11777
11659
11669
11749
11812
11859
11881
11732
11583
11447
11361
11381
11813
12158
12463
12681
12841
12971
12935
12860
12697
12497
12327
12192
12143
12100
12215
12373
12670
12739
12775
12792
12767
12778
12706
12684
12699
12654
12558
12207
12002
11822
11662
11594
11624
11765
11773
11803
11790
11774
11762
11789
11804
11879
12052
12324
12342
12342
12358
12352
12319
12224
12209
12137
12034
11920
11857
11937
12022
12091
12103
12100
12138
12103
12037
12048
12099
12110
12118
12119
12116
12106
12052
12008
11980
11979
11985
12011
12099
12112
12094
12038
11982
11907
11925
12003
12129
12272
12411
12510
12465
12312
12281
12309
12223
12158
12155
12146
12165
12149
12173
12211
12256
12298
12317
12444
12430
12426
12389
12240
11908
11843
11788
11702
11581
11448
11249
11238
11307
11441
11675
12497
12928
13320
13601
13702
13659
13437
13319
13208
13133
13058
12716
12502
12339
12169
11963
11669
11623
11583
11540
11552
11625
11738
11713
11661
11556
11557
11607
11663
11805
11906
11912
11896
11989
12056
12087
12082
12073
12194
12287
12413
12427
12479
12523
12519
12503
12443
12340
12237
12071
11979
11927
11867
11841
11868
11885
11930
12009
12068
12113
12150
12166
12184
12197
12231
12226
12212
12139
12076
12055
12074
12223
12377
12537
12583
12514
12294
12239
12222
12233
12149
12119
12109
12160
12280
12343
12313
12223
12190
12186
12196
12242
12139
12039
11912
11816
11747
11686
11672
11685
11700
11722
11737
11769
11845
11964
12123
12299
12582
12639
12754
12814
12879
12953
13148
13045
12822
12562
12301
12052
12049
12115
12163
12182
12236
12117
11940
11748
11628
11603
11639
11670
11747
11847
11883
11841
11899
12002
12063
12117
12156
12260
12326
12385
12386
12349
12283
12310
12405
12431
12433
12424
12300
12238
12172
12078
12017
11942
11946
11997
12074
12128
12137
12134
12106
12090
12015
11893
11633
11644
11634
11677
11809
12130
12300
12499
12685
12723
12694
12503
12365
12239
12135
12057
12082
12059
12067
12194
12365
12490
12615
12627
12649
12559
12513
12267
12139
12009
11917
11906
12105
12128
12097
12107
12078
12026
11947
11940
11938
11916
11887
11815
11769
11820
11960
12104
12203
12295
12372
12493
12612
12647
12536
12394
12249
12155
12070
11981
11830
11836
11958
12063
12118
12113
12108
12042
11960
11939
11932
11927
11948
11992
12023
12052
12103
12261
12473
12714
12826
12940
12912
12801
12563
12309
12120
11915
11852
11805
11788
11851
12011
12016
11995
11968
11971
12011
12075
12104
12117
12112
12060
11907
11911
11987
12029
12025
11956
11963
12024
12097
12156
12234
12448
12522
12484
12446
12396
12448
12348
12220
12114
12116
12239
12493
12566
12524
12440
12328
11985
11836
11758
11709
11751
11934
12032
12058
12107
12187
12252
12306
12291
12280
12280
12333
12437
12336
12155
11939
11776
11712
11785
11874
12002
12136
12233
12281
12198
12223
12214
12194
12177
12194
12183
12168
12122
12061
11967
11970
12025
12117
12230
12390
12456
12501
12530
12497
12391
12096
11975
11875
11814
11790
11896
11993
12035
12129
12207
12406
12496
12549
12612
12650
12630
12403
12275
12192
12151
12158
12134
12043
11987
11909
11830
11757
11668
11696
11766
11899
12097
12538
12656
12629
12597
12470
12315
12162
12174
12158
12135
12079
11928
11873
11859
11863
11888
11930
11918
11908
11945
12025
12105
12400
12543
12595
12508
12368
12194
12142
12089
12150
12250
12335
12390
12422
12398
12350
12398
12414
12317
12189
12028
11891
11954
12014
12025
11990
11952
11818
11782
11838
11939
12052
12142
12189
12148
12058
11895
11845
11892
11995
12072
12152
12206
12281
12327
12326
12302
12248
12207
12226
12435
12496
12500
12459
12383
12226
12210
12131
12056
12025
12082
12107
12103
12068
12082
12159
12249
12260
12265
12212
12164
12097
12048
12022
12045
12081
12102
12147
12186
12291
12385
12485
12633
12638
12554
12393
12254
12119
12099
12080
12024
11939
11875
11826
11849
11903
11946
11924
11971
12018
12112
12242
12357
12408
12431
12325
12187
12057
11968
11834
11841
11870
11921
11974
12017
12177
12313
12483
12566
12633
12442
12269
12140
12002
11895
11834
11807
11799
11827
11880
11948
12171
12308
12406
12436
12418
12377
12350
12292
12227
12203
12178
12202
12342
12469
12519
12516
12596
12637
12637
12665
12575
12144
11934
11745
11588
11468
11420
11574
11704
11754
11777
11750
11783
11805
11870
11974
12144
12293
12446
12561
12659
12635
12451
12120
12000
11905
11828
11835
12011
12158
12243
12273
12290
12283
12270
12397
12491
12581
12612
12467
12316
12213
12170
12105
12036
11887
11827
11812
11827
11836
12014
12108
12187
12322
12464
12579
12570
12520
12463
12471
12507
12362
12298
12316
12334
12408
12617
12541
12411
12238
12086
11916
11679
11615
11573
11540
11546
11536
11556
11576
11634
11754
11859
11997
12109
12328
12529
12628
12765
12844
12989
13064
13110
12959
12815
12657
12421
12124
11734
11079
10898
10792
10772
10802
10885
11060
11368
11804
12223
12618
12944
12948
12933
12833
12743
12733
12797
12862
12882
12837
12748
12560
12478
12391
12269
12138
11851
11758
11719
11715
11707
11747
11720
11653
11622
11633
11742
12103
12201
12263
12284
12252
12163
12177
12219
12315
12338
12363
12257
12172
12082
12052
12141
12525
12615
12698
12733
12746
12509
12458
12401
12320
12223
12109
11903
11819
11763
11703
11670
11780
11870
11924
11984
11989
11972
11997
12049
12059
12065
12081
12075
12077
12121
12179
12241
12326
12441
12530
12600
12657
12642
12521
12437
12346
12252
12193
12054
11937
11845
11825
11860
11788
11783
11744
11522
11379
11400
11761
11923
12121
12346
12559
12734
12829
12779
12713
12657
12675
12740
12724
12635
12493
12325
12055
11997
11963
11925
11911
11870
11876
11871
11894
11896
11882
11989
12020
12035
12040
12045
12090
12061
12021
12053
12104
12161
12224
12254
12262
12210
12107
12007
11969
11925
11902
11921
11949
11960
11948
12019
12039
12121
12396
12526
12521
12478
12449
12409
12311
12188
12180
12149
12111
12168
12219
12317
12460
12579
12653
12696
12732
12708
12588
12489
12291
12251
12180
12048
11919
11593
11444
11328
11261
11235
11267
11480
11580
11708
11881
12039
12332
12446
12540
12629
12664
12705
12672
12619
12598
12576
12504
12331
12264
12230
12225
12214
12205
12182
12187
12185
12169
12179
12232
12169
12075
12048
11943
11613
11566
11510
11456
11460
11567
11854
12013
12213
12446
12633
12839
12808
12691
12547
12424
12309
12212
12163
12148
12084
12039
11977
11935
11883
11910
12010
12214
12319
12481
12668
12818
12994
12844
12545
12283
12079
11915
11764
11690
11629
11571
11541
11537
11653
11778
11870
11921
11983
12121
12198
12245
12203
12176
12139
12077
12034
11983
11979
11992
12020
12021
12020
12075
12154
12407
12541
12684
12743
12726
12682
12601
12613
12604
12554
12469
12258
12175
12110
12019
11984
11974
11967
11916
11906
11916
11923
11956
11983
12017
12111
12227
12417
12460
12441
12477
12483
12449
12271
12193
12121
12121
12139
12038
11988
11943
11902
11849
11793
11718
11735
11807
11881
12011
12361
12467
12504
12474
12456
12517
12519
12432
12310
12207
12121
11959
11920
11880
11903
11929
11965
11983
12041
12109
12052
12019
12092
12219
12369
12463
12463
12254
12135
12021
11922
11852
11798
11886
11961
12024
12079
12087
12115
12208
12332
12419
12492
12541
12498
12407
12334
12233
12069
11892
11848
11796
11826
11908
12154
12266
12350
12430
12489
12528
12481
12441
12391
12352
12303
12247
12201
12187
12164
12157
12135
12140
12173
12217
12238
12218
12314
12330
12283
12247
12184
11939
11862
11804
11755
11734
11760
12052
12284
12391
12391
12296
12051
12004
12055
12099
12055
11781
11708
11714
11746
11768
11790
11964
12107
12280
12521
12701
12673
12532
12448
12467
12546
12606
12653
12589
12496
12404
12258
12064
11901
11798
11764
11824
11941
12269
12389
12361
12238
12132
11925
11909
11915
11967
12009
12248
12327
12381
12315
12183
12009
11656
11508
11515
11556
11680
11914
11958
11957
11957
12003
12064
12244
12287
12346
12480
12631
12843
12943
12901
12817
12758
12582
12433
12293
12221
12147
12015
11663
11570
11553
11596
11642
11847
11942
12061
12243
12433
12539
12528
12527
12520
12475
12429
12201
12175
12182
12164
12143
11980
11862
11835
11785
11762
11799
11900
11987
12099
12255
12377
12561
12590
12558
12416
12287
12176
12026
11968
11908
11836
11755
11761
11831
11991
12178
12347
12481
12480
12402
12309
12215
12156
12167
12121
12059
12067
12056
11998
11955
11964
12035
12220
12409
12592
12597
12617
12579
12463
12202
12108
12035
11983
11894
11818
11810
11905
12046
12121
12046
11971
11998
12032
12069
12175
12411
12416
12342
12235
12170
12115
11895
11807
11840
11916
11987
12054
12013
12082
12204
12406
12626
12703
12559
12452
12383
12294
12156
12168
12190
12214
12277
12272
12271
12309
12321
12277
12289
12311
12265
12230
12183
12090
11921
11771
11596
11532
11507
11500
11611
11649
11677
11793
11962
12456
12740
12896
12962
12971
12926
12765
12691
12586
12363
12142
11715
11659
11653
11661
11682
11855
11944
11979
12115
12164
12192
12349
12390
12319
12252
12245
12105
11864
11720
11678
11706
11837
12070
12231
12397
12524
12624
12819
12842
12798
12702
12586
12505
12457
12462
12434
12345
12216
11992
12009
12009
11996
11984
11892
11884
11863
11807
11788
11833
11844
11748
11682
11630
11587
11714
11851
12031
12220
12367
12489
12648
12585
12432
12357
12349
12347
12324
12299
12259
12153
11910
11770
11642
11577
11618
11727
12088
12271
12420
12572
12701
12594
12523
12486
12452
12430
12416
12314
12283
12180
12087
12032
11898
11860
11890
11923
11974
12054
11966
11869
11850
11902
12008
12243
12290
12373
12445
12469
12472
12508
12453
12333
12192
12072
11907
11918
11931
11947
12022
12099
12190
12321
12415
12469
12550
12741
12816
12800
12738
12594
12234
12008
11729
11490
11322
11161
11191
11335
11546
11771
11926
12171
12226
12302
12385
12507
12559
12613
12690
12718
12661
12616
12426
12280
12202
12148
12101
11993
12001
11938
11883
11813
11729
11744
11753
11760
11818
11934
12131
12173
12164
12077
11949
11961
11985
12054
12176
12294
12455
12660
12595
12514
12454
12396
12381
12484
12533
12527
12454
12368
12312
12315
12271
12209
12147
12073
12098
12201
12339
12354
12212
12106
11997
11929
11856
11802
11794
11759
11708
11675
11658
11821
11974
12077
12201
12365
12487
12451
12369
12341
12329
12431
12639
12623
12607
12587
12524
12488
12336
12183
12005
11823
11612
11341
11324
11350
11388
11506
11938
12131
12295
12407
12486
12532
12493
12484
12539
12587
12577
12383
12179
11917
11648
11482
11387
11464
11600
11774
12001
12299
12746
12805
12770
12677
12528
12330
12227
12201
12240
12287
12275
12140
12070
12029
12055
12121
12322
12387
12397
12321
12184
12007
11826
11780
11749
11764
11836
11942
12068
12143
12163
12184
12191
12211
12324
12456
12528
12637
12697
12609
12514
12443
12392
12222
12172
12164
12216
12267
12241
11955
11828
11736
11665
11642
11673
11742
11808
11856
11960
12310
12441
12489
12571
12603
12572
12297
12196
12168
12128
12122
12160
12224
12300
12350
12348
12347
12241
12190
12161
12126
12074
12118
12101
12095
12063
11950
11868
11776
11759
11762
11780
11787
11788
11847
11890
11958
12070
12319
12413
12489
12585
12629
12543
12242
12270
12316
12345
12364
12531
12586
12567
12487
12448
12392
12222
12184
12108
12078
12088
12201
12142
12008
11876
11800
11772
11775
11807
11860
11944
11979
11714
11684
11722
11744
11748
11855
11879
11863
11960
12242
12662
13122
13112
13035
12915
12799
12504
12392
12359
12293
12259
12180
12087
12109
12082
12006
11932
12024
12022
11976
11929
11922
11999
12050
12051
12103
12155
12200
12302
12363
12417
12425
12446
12317
12217
12116
11959
11821
11707
11652
11643
11724
11887
12060
12201
12167
12157
12160
12131
12148
12134
12097
12112
12151
12224
12227
12197
12136
12026
11982
11890
11935
12001
12125
12226
12287
12380
12508
12676
12902
13066
12836
12524
12199
11958
11791
11597
11659
11762
11914
12067
12209
12492
12541
12606
12647
12669
12650
12531
12320
12100
11923
11795
11757
11795
11829
11849
11904
12110
12169
12117
12127
12106
12022
11930
11971
12013
12053
12072
12143
12143
12122
12113
12071
11952
11787
11669
11586
11555
11631
11917
12127
12322
12478
12592
12734
12762
12728
12685
12680
12665
12464
12326
12166
12040
12032
12120
12135
12169
12175
12151
12185
12134
12052
12040
12149
12166
12082
12180
12306
12424
12551
12837
12920
12878
12691
12422
12156
11813
11761
11786
11841
11880
11896
11905
11924
11944
11993
12016
12042
12018
11962
11925
11845
11652
11601
11579
11619
11692
11894
12014
12130
12193
12237
12245
12186
12220
12340
12413
12484
12646
12670
12647
12545
12377
12193
12096
12133
12195
12271
12363
12360
12327
12232
12112
11995
11914
11897
11886
11879
11866
11917
12049
12091
12107
12136
12191
12335
12447
12507
12435
12348
12322
12450
12480
12437
12389
12329
12156
12072
11962
11874
11835
11888
12129
12229
12294
12277
12219
12206
12143
12093
12038
11964
11987
11999
12064
12150
12246
12315
12416
12407
12342
12263
12176
12211
12230
12238
12181
12112
12009
11931
11978
12068
12121
12083
11960
11958
11998
12110
12234
12273
12175
12027
11918
11853
11821
11819
11849
11851
11869
11901
12008
12087
12159
12273
12424
12572
12726
12704
12609
12468
12288
12186
12185
12187
12228
12289
12424
12477
12500
12499
12451
12398
12314
12373
12379
12284
12164
12023
11917
11830
11752
11699
11713
11885
11924
11906
11862
11805
11762
11768
11837
11920
12028
12167
12512
12706
12772
12766
12754
12573
12404
12264
12107
11875
11435
11350
11303
11269
11298
11428
11846
12098
12327
12533
12714
12953
13037
13060
13078
13076
13100
13022
12998
12809
12533
12278
12020
11932
11889
11830
11819
11801
11765
11756
11758
11771
11761
11827
11947
12094
12196
12230
12081
12016
12009
12040
12058
12112
12119
12100
12048
11992
11956
11912
11933
11984
12057
12103
12091
12080
12036
12013
12019
11998
11905
11795
11670
11594
11572
11665
11789
11870
11974
12052
12141
12363
12512
12731
12964
13228
13646
13781
13784
13680
13432
13148
12565
12335
12140
11950
11754
11534
11474
11440
11434
11471
11436
11286
11194
11138
11140
11213
11546
11777
11960
12028
12001
12023
12152
12369
12655
12916
13136
13321
13224
13054
12886
12765
12695
12653
12606
12592
12524
12158
11912
11792
11701
11693
11732
11815
11833
11821
11881
11943
12014
12021
12059
12055
12090
12059
11953
11961
11999
12009
11943
11845
11862
11851
11846
11904
11997
12165
12297
12461
12517
12587
12522
12558
12605
12588
12454
12155
12116
12138
12160
12156
12135
11879
11768
11762
11766
11803
11950
11962
11960
11976
11977
11947
11814
11798
11947
12100
12227
12524
12793
12927
12884
12751
12443
12275
12138
12030
11923
11934
12162
12345
12571
12769
12905
12976
12913
12726
12539
12320
12073
11538
11226
11046
10937
10837
10834
11016
11228
11404
11682
12086
13038
13371
13557
13573
13471
13178
12987
12758
12601
12510
12430
12329
12238
12109
11958
11844
11775
11678
11478
11246
11067
11004
11106
11196
11207
11209
11261
11503
11762
11975
12115
12280
12834
13114
13315
13392
13413
13550
13681
13788
13780
13604
13262
12689
12595
12456
12288
12018
11579
11502
11452
11415
11432
11481
11535
11554
11552
11547
11557
11651
11666
11692
11735
11767
11862
11909
11961
12025
12106
12169
12211
12185
12116
12030
12018
12047
12084
12151
12193
12236
12270
12430
12474
12488
12459
12410
12410
12386
12367
12374
12365
12315
12219
12187
12127
12095
12084
12110
12161
12238
12271
12320
12194
12085
12020
11838
11539
11265
10778
10657
10627
10661
10785
11396
11827
12320
12866
13422
13886
14818
15172
15183
14803
14222
13278
12785
12273
11819
11541
11380
11418
11536
11688
11782
11820
11771
11711
11686
11696
11664
11375
11045
10726
10448
10213
10073
10262
10517
10852
11232
11650
12435
12729
13088
13596
14207
14756
15501
15577
15403
14886
14150
12765
12347
12036
11782
11548
11269
11329
11451
11594
11632
11598
11368
11254
11277
11400
11553
11389
11004
10535
10174
9908
9871
10028
10637
11010
11441
11936
12535
13256
14432
14865
15279
15538
15534
15232
14890
14375
13767
13259
12777
11885
11505
11213
11053
11004
11077
11114
11116
11072
11062
11096
11212
11297
11368
11420
11482
11559
11610
11663
11708
11790
11984
11978
11875
11689
11518
11440
11587
11775
11953
12113
12263
12702
12949
13139
13154
13130
13096
12968
12938
12907
12753
12662
12627
12545
12390
12231
12137
12027
11964
11885
11854
11825
11778
11698
11661
11679
11752
11830
11845
11728
11609
11515
11474
11473
11591
11628
11782
11943
12142
12474
12626
12683
12711
12712
12756
12836
12800
12765
12764
12729
12569
12577
12603
12647
12675
12683
12740
12785
12753
12482
12227
11898
11819
11759
11714
11688
11756
11759
11750
11677
11546
11348
11051
11012
10932
10868
10814
10681
10651
10671
10786
11086
12450
13239
13911
14506
14911
14973
14566
14423
14272
14089
13783
12835
12577
12413
12234
12031
11859
11644
11501
11255
10918
10571
10170
10129
10235
10458
10707
11385
11548
11483
11445
11543
11693
12209
12237
12203
12177
12188
12256
12318
12611
13195
14017
14900
15879
15759
15256
14656
14059
12908
12553
12255
11904
11357
10791
9937
9536
9194
9007
8929
8979
9165
9500
9867
10316
10892
11607
12485
14235
14719
14924
15040
15019
14774
13941
13536
13254
13023
12850
12686
12608
12503
12356
12126
11484
11320
11264
11243
11136
11064
10928
10871
10906
11071
11371
11939
11889
11728
11648
11611
11495
11392
11285
11162
11248
11373
11661
11928
12225
12556
12941
13748
14167
14449
14648
14599
14322
13856
13508
13008
12569
12295
11938
11697
11496
11361
11198
11066
11070
11035
10781
10437
9995
9477
9024
8781
8715
9050
9634
10355
11718
12295
12772
13351
14124
15695
16268
16647
17057
17305
16559
15645
14612
13529
12481
11569
10343
9935
9550
9168
8917
8838
8893
9129
9515
10055
10729
11372
11881
12801
13170
13418
13555
13732
14144
14111
13857
13417
12834
11784
11380
11158
10985
10731
10582
10710
10826
10740
10717
10806
10812
10760
10832
11269
11956
12590
13725
14182
14400
14520
14627
15229
15525
15612
15444
14893
13204
12475
11891
11177
10320
9645
9203
9003
9004
8973
9146
9451
9883
10428
10975
11632
12529
13573
14522
15152
15047
14703
13923
12967
11880
11962
12301
12578
12670
12559
12406
12161
11783
11408
11040
10797
10920
11032
11047
10978
10834
10814
10848
11079
11421
11785
12665
13086
13615
14129
14507
14555
14338
13987
13601
12986
12276
10971
10487
10279
10153
10162
10601
10850
11016
11188
11553
12311
12613
13108
13950
14651
14823
13807
12880
12021
11254
10448
9569
9501
9812
10336
10832
11051
11019
10793
11780
12781
13631
14375
15249
15970
15947
15563
14956
14379
13865
13438
13452
13454
13337
13010
12577
11412
10768
10244
9877
9664
9571
9590
9763
10049
10375
11071
11449
11813
12190
12557
13082
13304
13518
13790
13695
12494
11898
11503
11267
11183
11225
11531
11668
11747
11795
11778
11542
11450
11443
11526
11395
10818
9128
8764
8757
9064
9578
10091
10631
11189
11695
12439
14662
16205
17865
19274
19760
17915
16561
15425
14457
13641
11969
11416
10948
10732
10901
11162
10843
10508
10346
10064
9774
9776
10082
11208
11888
12429
12719
12789
12443
11598
11680
11980
12130
12050
12239
12135
11573
10918
10477
10771
11360
11874
12056
12027
12105
12151
12257
12642
13179
13612
13424
12918
12252
11706
11652
11953
13100
13805
14066
13910
13566
12547
12264
12118
12100
12254
13013
13168
12896
12317
11829
11389
10462
9980
9656
9455
9432
9613
10014
10624
11516
12540
13776
13995
14200
14256
14428
14182
13859
13552
13049
12283
11453
10161
9828
9918
10233
10696
11094
11384
11443
11496
11819
12429
13240
14508
15197
15604
15340
14539
13657
12645
12285
11813
11369
11069
11204
11421
11576
11719
11829
11820
11271
11071
10980
11072
11343
11938
11919
11844
11848
11941
12330
12510
12579
12673
12672
12327
11020
10607
10340
10251
10368
10931
11596
12401
13095
13700
14339
14943
14607
14030
13296
12589
12208
12150
12145
12255
12266
11545
11100
10684
10547
10600
10748
10887
11027
11141
11365
11818
13519
14204
14491
14379
13999
13602
13055
12793
12524
12344
12270
12334
12283
12322
12487
12509
12465
12385
12329
12298
12253
11945
10944
10648
10482
10403
10363
10451
10730
11168
11760
12238
12572
13062
13093
12932
12616
12325
11842
11631
11475
11460
11661
12119
13202
13497
13589
13476
13121
12371
12380
12565
12719
12781
12765
12832
12816
12576
12263
12054
11788
11527
11363
11294
11267
11341
11427
11414
11278
11199
11239
11925
12494
12859
12900
12780
12308
12273
12341
12546
12816
13093
13246
13006
12709
12411
12152
11882
11790
11749
11739
11753
11881
11937
11944
11921
11932
11902
11901
11918
11943
11967
12014
12017
12020
12036
12067
12087
12086
12108
12113
12140
12166
12180
12192
12185
12144
12144
12155
12137
12112
12073
12014
11967
11954
11932
11969
11977
11938
11913
12013
12114
12243
12372
12455
12470
12269
11994
11657
11372
11078
10449
10238
10159
10315
10746
12023
12881
13828
14748
15483
15929
15891
15512
14998
14323
13548
12311
12004
11831
11670
11444
11168
10734
10723
10814
11002
11179
11442
11512
11630
11616
11652
11788
12508
12873
13031
13020
12940
12611
12413
12250
12150
12071
11882
11769
11640
11482
11278
11093
10899
10903
10921
10946
11050
11475
11846
12230
12508
12773
12990
13292
13198
13099
12969
12826
12500
12478
12535
12533
12475
12573
12623
12510
12226
11960
11782
11726
11832
12039
12227
12285
12105
12002
11912
11755
11626
11599
11470
11393
11330
11296
11346
11686
11975
12322
12599
12775
12912
12997
12929
12855
12809
12749
12539
12593
12739
12788
12689
12235
11946
11526
11036
10577
10293
10232
10257
10355
10585
10948
11992
12541
13186
13981
14791
15341
15482
15054
14578
14182
13809
12839
12377
11965
11639
11413
11057
10908
10766
10645
10541
10489
10542
10589
10672
10844
11024
11534
11878
12252
12558
12712
12765
12734
12523
12323
12223
12266
12859
13209
13449
13512
13406
13034
12817
12598
12311
11958
11584
11221
11199
11322
11568
11828
12280
12476
12560
12615
12646
12558
12382
12396
12347
12186
11961
11744
11655
11551
11465
11420
11416
11452
11481
11524
11606
11665
11855
11991
12156
12377
12597
12926
12997
13042
12959
12744
12482
12096
12011
11984
11995
12021
11985
11921
11914
11963
12030
12112
12335
12438
12575
12720
12818
12813
12633
12424
12203
12057
11874
11804
11743
11661
11601
11523
11414
11452
11594
11650
11702
11853
11901
11971
12085
12250
12440
12796
12895
13041
13152
13137
12673
12367
12183
12151
12119
12074
11752
11552
11420
13433
20441
6968
8715
7906
7695
8654
9251
9804
10418
10953
11505
12055
12467
12938
13074
13183
13401
18428
12639
10870
10872
11131
11417
13048
16134
11497
9771
9978
10471
10799
10993
11469
11748
11816
11764
11687
11654
11645
11760
12068
12430
12900
13726
13958
14087
14072
13887
13463
13241
13040
12820
12587
12291
11767
11638
11609
11643
11711
11921
12061
12189
12232
12263
12094
12014
11973
11962
11946
11943
11956
11983
12000
12010
12008
12063
12081
12075
12026
11984
11992
12027
12120
12201
12299
12377
12367
12340
12433
12506
12495
12330
12221
12147
12090
12083
12107
12136
12129
12102
12064
12028
11941
11979
12056
12165
12247
12304
12306
12259
12180
12077
12004
12084
12146
12206
12109
11963
11769
11720
11632
11667
11813
12043
12617
12749
12769
12711
12585
12436
12529
12701
12907
13092
13216
13349
13350
13315
13187
12961
12560
12422
12276
12086
11861
11682
11561
11546
11497
11483
11485
11471
11471
11512
11562
11633
11733
11793
11832
11819
11817
11796
11671
11636
11682
11713
11752
11823
11843
11868
12048
12240
12447
12707
12716
12648
12614
12594
12533
12498
12454
12421
12381
12294
12225
12199
12155
12115
12081
12160
12166
12132
12081
12062
12126
12167
12184
12239
12281
12254
12182
12121
12036
11940
11870
11744
11691
11662
11654
11680
11712
11751
11801
11866
11932
12053
12338
12453
12567
12656
12758
12900
12877
12766
12574
12475
12361
12233
12210
12158
12049
11972
11930
11904
11908
11954
11996
11992
11903
11876
11874
11900
11979
12119
12185
12263
12310
12297
12252
12247
12274
12402
12637
12909
12900
12781
12655
12488
12294
11963
11863
11787
11694
11595
11549
11689
11762
11884
11981
12137
12281
12209
12148
12077
12040
12041
12254
12287
12260
12186
12204
12267
12316
12312
12264
12228
12113
12111
12176
12219
12273
12388
12591
12522
12459
12410
12349
12210
12137
12049
11950
11855
11788
11765
11787
11822
11874
11960
12104
12127
12171
12200
12156
12052
12054
12072
12105
12133
12138
12093
12064
11990
11971
11962
12041
12105
12166
12181
12140
12099
12195
12262
12324
12351
12347
12316
12274
12237
12222
12152
12076
12102
12109
12097
12092
12085
12058
12043
11984
12002
12082
12148
12173
12194
12178
12172
12136
12014
11942
11889
11839
11785
11877
11955
12026
12084
12144
12226
12547
12705
12829
12888
12810
12518
12386
12228
12089
12046
12031
12017
12062
12087
12090
12059
11997
12092
12230
12313
12294
12209
12189
12195
12197
12182
12158
12234
12386
12509
12597
12618
12547
12475
12438
12388
12408
12457
12431
12390
12325
12214
12154
12023
11922
11828
11771
11758
11904
11920
11876
11827
11876
11877
11858
11816
11804
11807
11785
11856
11950
12063
12134
12251
12425
12370
12232
12155
12134
12129
12154
12146
12139
12121
12102
12079
12101
12061
12004
11920
11878
11899
11958
12023
12065
12107
12105
12110
12149
12190
12225
12333
12517
12598
12671
12669
12633
12494
12382
12322
12300
12266
12203
12224
12176
12151
12096
12045
11859
11819
11803
11797
11850
12009
12021
12023
12020
11973
11958
12055
12090
12106
12123
12134
12182
12220
12292
12335
12376
12419
12441
12540
12641
12754
12808
12613
12394
12184
12043
11981
12084
12180
12270
12301
12236
12156
12103
12081
11991
11959
11918
11857
11821
11811
11798
11839
11905
12117
12236
12290
12324
12314
12160
12069
11997
11952
11950
12178
12310
12406
12441
12439
12344
12331
12319
12230
12192
12161
12105
12068
11986
11943
11899
11878
11903
11968
12061
12199
12334
12492
12448
12387
12302
12223
12146
12116
12092
12064
12040
11999
11981
11987
11994
11998
12021
12068
12009
11905
11846
11831
11868
11946
12015
12146
12281
12426
12485
12521
12551
12530
12455
12320
12205
12194
12202
12205
12203
12159
12136
12118
12114
12159
12286
12293
12257
12213
12205
12163
12083
12019
11979
11890
11821
11959
12063
12117
12150
12165
12261
12493
12555
12592
12601
12600
12349
12258
12141
12004
11882
11853
11935
12025
12160
12279
12396
12493
12523
12568
12584
12469
12165
12099
11991
11877
11816
11825
11798
11828
11909
11992
12067
11972
11895
11864
11907
11910
11978
12055
12087
12117
12170
12282
12411
12364
12338
12370
12339
12190
12121
12083
12063
12039
12020
12146
12191
12181
12136
12083
11980
11945
11981
12004
12026
12080
12288
12324
12324
12289
12261
12230
12232
12244
12262
12273
12406
12465
12453
12297
12183
12076
11971
11978
12039
12111
12175
12241
12177
12173
12175
12213
12226
12095
12033
12012
12024
11999
11962
11976
12016
12040
12100
12080
12049
12010
12007
11977
11975
11992
12024
12108
12301
12549
12906
12896
12824
12710
12587
12472
12248
12172
12109
12075
12080
12271
12341
12391
12427
12476
12540
12425
12282
12102
11924
11719
11504
11438
11393
11392
11409
11640
11841
11998
12128
12181
12223
12279
12251
12299
12425
12531
12505
12412
12392
12437
12486
12595
12564
12511
12421
12306
12215
12042
11970
11912
11812
11752
11650
11564
11479
11470
11481
11520
11701
11820
11895
11931
11989
12229
12362
12465
12519
12574
12648
12686
12615
12542
12478
12432
12397
12392
12333
12245
12162
12124
12161
12184
12141
12094
12058
12098
12266
12448
12544
12541
12219
12058
11924
11803
11711
11685
11827
11935
12048
12165
12269
12440
12448
12451
12430
12438
12421
12231
12157
12084
12075
12104
12194
12179
12162
12166
12179
12215
12219
12186
12118
12082
12074
12245
12313
12315
12318
12331
12206
12105
12008
11903
11771
11599
11354
11347
11355
11401
11516
11862
12075
12267
12434
12588
12752
12725
12654
12563
12521
12554
12519
12437
12417
12419
12361
12272
12377
12462
12437
12417
12485
12620
12539
12415
12217
12084
11889
11828
11812
11769
11716
11553
11306
11318
11370
11426
11518
11932
12189
12418
12554
12557
12232
12123
12111
12141
12163
12185
12288
12285
12266
12191
12082
12036
12049
12072
12127
12191
12247
12330
12343
12356
12356
12375
12483
12540
12573
12591
12486
12286
12162
12041
11953
11928
11933
11956
11957
11972
12012
11990
11983
11978
12044
12123
12230
12432
12727
12761
12706
12593
12510
12380
12391
12361
12294
12201
12147
11996
11902
11748
11568
11422
11287
11309
11398
11529
11633
11928
12154
12368
12476
12496
12494
12547
12595
12574
12546
12494
12365
12316
12309
12278
12277
12331
12530
12537
12446
12263
12084
11918
11931
12058
12179
12250
12227
12205
12167
12085
12009
11937
11971
11995
12068
12206
12340
12416
12404
12452
12485
12485
12454
12290
12153
12043
11962
11907
11749
11629
11545
11464
11381
11235
11066
11035
11047
11111
11283
11916
12311
12616
12853
13049
13345
13413
13387
13315
13242
13155
12935
12795
12691
12549
12284
11734
11556
11440
11375
11400
11481
11646
11769
11865
11885
12001
12144
12193
12254
12283
12292
12343
12386
12432
12559
12643
12646
12507
12381
12229
12049
11922
11808
11823
11872
11917
11978
12036
12022
12035
12022
12000
11979
12052
12126
12209
12217
12226
12366
12454
12535
12633
12753
12715
12419
12306
12204
12111
12029
11987
11998
12009
12015
12005
11985
11939
11956
12035
12120
12139
12135
12104
12052
12003
11974
11995
12089
12143
12171
12158
12088
12047
12109
12126
12176
12239
12360
12382
12407
12453
12553
12717
12834
12821
12736
12657
12581
12398
12315
12244
12118
11917
11690
11243
11132
11080
11049
10997
10973
11029
11091
11261
11537
12082
12329
12542
12728
12845
12913
12906
12838
12787
12758
12801
12706
12592
12495
12388
12276
12205
12156
12156
12220
12398
12555
12436
12315
12224
12125
11994
11890
11812
11812
11953
12179
12310
12251
12187
12159
12082
11967
11885
11938
12019
12107
12185
12217
12088
11977
11851
11778
11874
12066
12156
12235
12226
12182
12135
12102
12077
12049
12021
12025
12051
11996
11975
12019
12085
12244
12356
12448
12494
12512
12531
12492
12448
12392
12360
12375
12373
12263
12104
11935
11760
11667
11678
11798
11917
12111
12342
12575
12583
12523
12482
12443
12301
12206
12076
11937
11899
11906
11966
12018
12063
12043
11958
11902
11943
12063
12188
12263
12328
12395
12403
12452
12496
12513
12675
12799
12787
12696
12563
12460
12306
12177
12088
12015
11918
11651
11536
11465
11439
11413
11470
11481
11538
11597
11664
11754
11939
12055
12122
12202
12335
12585
12648
12637
12606
12597
12485
12264
12187
12135
12084
12076
12083
12143
12246
12333
12406
12497
12489
12490
12499
12543
12527
12394
12269
12098
12012
11993
12028
12014
11896
11686
11566
11539
11594
11635
11725
11830
11951
12257
12388
12525
12676
12712
12613
12454
12408
12413
12405
12422
12423
12429
12389
12294
12194
11969
11900
11867
11812
11749
11786
11964
12046
12174
12336
12460
12571
12570
12489
12376
12315
12268
12232
12168
12089
11966
11881
11755
11745
11743
11754
11781
11781
11781
11820
11915
11968
12066
12166
12179
12234
12357
12452
12473
12442
12417
12400
12453
12562
12750
12746
12652
12505
12340
12155
12066
11981
11938
11909
11834
11775
11698
11647
11597
11584
11831
11994
12126
12256
12373
12507
12474
12383
12279
12139
12014
11889
11874
11805
11777
11827
11952
12012
12129
12204
12302
12405
12673
12777
12831
12830
12761
12794
12752
12728
12711
12635
12352
12215
12038
11874
11714
11614
11552
11635
11709
11768
11834
11786
11711
11587
11477
11320
11272
11625
11919
12182
12401
12570
12828
12852
12829
12765
12691
12652
12713
12758
12714
12642
12599
12311
12172
12053
11959
11990
12085
12057
11984
11974
11967
11981
12021
12059
12116
12151
12136
12019
11968
11934
11923
11937
12034
12218
12188
12138
12080
12029
11994
11922
11898
11893
11888
11830
11805
11760
11754
11790
11808
11902
12005
12120
12211
12311
12493
12577
12600
12590
12532
12469
12428
12442
12374
12327
12358
12617
12709
12810
12906
12866
12630
12541
12372
12190
12052
11956
11891
11834
11743
11635
11530
11191
11084
11012
11041
11182
11468
12244
12530
12649
12714
12849
13152
13138
13030
12950
12768
12553
12084
11878
11702
11541
11451
11398
11456
11571
11724
12011
12486
12714
12853
12892
12915
12900
12721
12623
12514
12390
12261
12020
11871
11724
11635
11544
11428
11537
11662
11764
11906
12085
12305
12297
12321
12390
12459
12411
12275
12248
12208
12116
11988
11872
11844
11875
11879
11847
11853
11811
11716
11644
11660
11661
11777
11955
12177
12438
12653
12951
13018
13033
13016
13016
12788
12590
12442
12276
12120
11984
12015
11985
11944
11908
11903
11981
11994
11996
12009
12061
12138
12340
12393
12357
12286
12219
12258
12265
12246
12188
12095
12057
12399
12465
12478
12450
12409
12317
12287
12285
12268
12274
12235
12189
11997
11745
11541
11408
11150
11082
11101
11146
11223
11589
11833
12060
12289
12549
12823
13000
12908
12798
12673
12522
12317
12274
12269
12321
12423
12532
12486
12370
12195
12049
12056
12064
12101
12129
12164
12197
12274
12288
12364
12410
12343
12191
11874
11712
11561
11535
11640
11854
11809
11799
11827
11879
11979
12261
12379
12472
12507
12470
12314
12242
12221
12192
12212
12438
12437
12348
12320
12358
12418
12525
12525
12299
12060
11903
12022
12130
12237
12345
12437
12536
12632
12511
12358
12186
12018
12013
11939
11818
11753
11693
11551
11590
11686
11723
11725
11740
11858
11905
11965
12152
12398
12651
12558
12318
12059
11943
12056
12390
12583
12810
12918
12784
12281
12093
11957
11863
11827
11909
12002
12187
12285
12286
12219
12072
12091
12176
12312
12504
12675
12642
12602
12508
12439
12387
12213
12096
11970
11849
11745
11629
11494
11339
11218
11210
11203
11351
11519
11700
11897
12079
12478
12673
12883
12932
12942
12864
12817
12758
12740
12701
12647
12507
12393
12266
12140
12019
11999
12009
12005
11977
11968
11991
12014
12035
12112
12271
12385
12255
12079
11959
11869
11789
11954
12022
12047
12069
12088
12104
12252
12388
12384
12327
12298
12426
12593
12633
12622
12648
12679
12508
12287
12101
12019
11953
11751
11735
11702
11643
11531
11494
11327
11310
11360
11414
11472
11804
12092
12254
12288
12254
12292
12436
12592
12677
12764
12835
12806
12748
12734
12669
12538
12232
12132
12050
11954
11866
11842
11936
11947
11907
11936
11984
12124
12162
12166
12166
12161
12189
12268
12412
12492
12519
12493
12326
12262
12234
12187
12144
12092
12095
12091
12079
12107
12115
12103
12003
11927
11965
12088
12426
12467
12391
12253
12155
12094
12014
11971
11942
11915
11892
11835
11948
12125
12264
12388
12549
12599
12659
12706
12712
12640
12475
12365
12304
12235
12223
12130
12018
11922
11760
11592
11466
11366
11379
11460
11510
11527
11727
11845
12016
12208
12339
12488
12483
12448
12434
12452
12461
12380
12370
12388
12452
12550
12530
12411
12331
12229
12122
12019
11900
11906
12038
12097
12144
12370
12422
12382
12344
12391
12275
12178
12065
11976
11934
11921
11849
11849
11846
11879
11920
12097
12129
12177
12193
12146
12111
12223
12224
12197
12139
12072
12164
12253
12287
12356
15268
22762
25170
24265
23415
22587
21844
20484
19909
19379
18887
18198
17439
17295
16987
16642
16303
15998
15455
15209
14967
14814
14593
14217
14023
13300
14247
15713
15697
15344
15184
15031
10581
7
9
9
251
251
1075
1844
2549
3204
3847
4436
4957
5444
5908
6326
6708
7057
7410
7733
8053
8626
8885
9134
9368
9644
10224
11240
12423
13566
14543
15969
16476
16848
17155
17319
17388
17647
17744
17773
17839
17875
17936
17943
17879
17831
17780
17722
17623
17446
17207
16979
16722
16054
15806
15571
15382
15193
14896
14802
14740
14677
14614
14594
14523
14418
14223
14023
13864
13563
13365
13193
13049
12883
12717
12454
12394
12451
12515
12563
12673
12777
12927
12999
13079
13073
12832
12626
12528
12409
12350
12294
12285
12282
12303
12336
12362
12370
12345
12281
12255
12311
12415
12464
12522
12536
12508
12437
12278
12156
12022
11947
11937
11887
11825
11766
11737
11755
11728
11726
11722
11721
11799
11854
11839
11873
11909
11939
11963
11980
11964
11908
11827
11729
11624
11620
11662
11799
11975
12193
12484
12575
12655
12698
12673
12578
12573
12547
12465
12333
12221
12012
11998
12051
12056
12061
12016
11965
11902
11804
11698
11606
11657
11665
11811
11974
12080
12264
12253
12225
12153
12085
11848
11804
11804
11792
11807
11884
11917
11910
11916
11964
12003
12100
12041
12024
12027
12023
12046
12078
12102
12124
12181
12187
12045
11969
11930
11902
11880
11936
11975
11994
12038
12085
12152
12119
12056
12015
12031
12045
12181
12168
12109
11987
11831
11741
11755
11787
11799
11877
11921
11955
12032
12083
12139
12203
12403
12511
12642
12762
12810
12760
12485
12447
12545
12683
12740
12492
12274
12022
11845
11693
11576
11419
11354
11253
11272
11312
11430
11414
11408
11403
11438
11709
11934
12171
12360
12449
12502
12887
12993
13042
13020
12960
12615
12462
12416
12337
12240
12257
12454
12521
12486
12314
12136
11685
11498
11359
11314
11349
11459
11544
11615
11705
11819
11946
12155
12255
12452
12631
12696
12444
12352
12341
12330
12288
12248
12131
12083
12028
11916
11933
12033
12012
11970
11929
11876
11814
11696
11692
11692
11729
11818
11980
12074
12132
12193
12227
12308
12335
12385
12416
12423
12371
12098
11968
11921
11856
11768
11782
11750
11741
11749
11738
11761
12030
12170
12270
12338
12359
12194
12150
12132
12237
12335
12488
12466
12463
12480
12445
12470
12593
12625
12563
12456
12312
12270
12265
12239
12186
12108
12112
12113
12123
12126
12136
12203
12378
12433
12397
12287
12135
12010
11778
11705
11690
11715
11764
11886
11915
11913
11900
11870
11871
11892
11918
11924
11940
11951
11997
11988
11989
12017
12040
11998
11920
11846
11773
11748
11756
11844
11921
11993
12047
12129
12280
12359
12436
12542
12685
12865
12884
12828
12760
12670
12647
12620
12485
12210
11938
11713
11431
11376
11396
11393
11396
11448
11548
11602
11709
11925
12204
12946
13215
13393
13445
13372
13209
12994
12985
12889
12703
12470
12009
11822
11692
11612
11633
11798
11858
11891
11746
11472
11559
11390
11335
11525
11693
11738
12152
12259
12347
12403
12387
12322
12155
12147
12133
12062
12020
11993
12061
12073
12083
12060
12032
12053
12107
12177
12157
12036
11784
11669
11623
11609
11655
11863
12068
12274
12459
12649
12844
13138
13130
13057
13056
13067
12868
12603
12317
12047
11851
11646
11631
11641
11738
11872
11926
11790
11649
11487
11369
11324
11411
11478
11566
11689
11854
12058
12443
12677
12952
13220
13388
13387
13320
13236
13159
13003
12762
12201
12033
11919
11929
11965
11941
11895
11837
11760
11675
11553
11502
11478
11490
11523
11563
11590
11595
11684
11837
11975
12322
12514
12583
12476
12313
12243
12336
12352
12361
12443
12640
12681
12601
12652
12775
12863
12875
12616
12273
11918
11670
11540
11390
11304
11295
11272
11228
11149
11253
11400
11579
11824
12106
12557
12651
12685
12701
12751
12540
12475
12566
12616
12763
12924
13020
13029
13012
12897
12666
12301
12046
11948
11908
11857
11650
11685
11799
11870
11901
11827
11727
11740
11803
11833
11906
12036
12091
12102
12183
12253
12277
12168
12110
12069
12005
11978
12057
12064
12089
12176
12283
12452
12480
12415
12303
12265
12273
12213
12163
12127
12089
12080
12132
12178
12242
12272
12243
12223
12220
12135
12090
12039
11986
11923
11844
11669
11546
11452
11323
11397
11430
11474
11512
11615
11840
11957
12127
12365
12577
13041
13151
13087
12829
12573
12362
12118
12140
12181
12275
12443
12919
13139
13189
13184
13172
13155
12791
12475
12171
11871
11608
11038
10778
10565
10465
10562
11201
11632
12143
12669
13178
13610
13980
13951
13847
13620
13259
12706
12540
12360
12091
11865
11707
11481
11400
11341
11318
11303
11311
11357
11401
11420
11431
11388
11368
11398
11449
11570
11710
12188
12475
12778
13050
13202
13290
13212
13152
13023
12876
12747
12370
12221
12158
12099
12077
12026
11993
11951
11857
11735
11659
11731
11761
11794
11754
11737
11739
11761
11770
11810
11868
12037
12139
12218
12259
12226
12217
12061
11987
11989
12029
12131
12425
12531
12468
12253
12030
11861
11555
11415
11301
11195
11100
11108
11226
11477
11808
12208
12994
13420
13729
13931
13980
13828
13348
13188
13048
12948
12936
12834
12832
12719
12484
12260
12035
11317
11070
10946
11007
11171
11583
11711
11878
12023
12173
12617
12794
12881
12741
12423
12142
12191
12290
12320
12408
12560
12732
12598
12462
12366
12288
12246
12156
12236
12137
11918
11802
11733
11693
11687
11709
11745
11690
11337
11158
10866
10460
10099
10168
10448
10767
11164
11642
12569
13042
13519
14021
14599
15144
15436
15192
14855
14280
13506
12104
11664
11422
11389
11426
11492
11732
11826
11852
11790
11636
11375
11305
11273
11255
11232
11150
11029
10880
10695
10488
10343
10352
10452
10616
10747
11041
12033
12705
13494
14340
15129
15692
15694
15182
14489
13710
12976
11817
11514
11261
11098
11010
10944
11096
11329
11632
11991
12247
12141
12072
12122
12171
12106
12167
12242
12368
12550
12819
13171
13663
13622
13464
13316
13163
12640
12434
12068
11624
11184
10968
10909
11052
11198
11314
11345
11165
11218
11331
11452
11492
11599
11858
12096
12128
11954
11830
12037
12227
12382
12511
12534
12380
12364
12369
12537
12855
13144
13764
13872
13598
13202
12882
12393
12229
12083
12016
12013
12047
12158
12257
12238
12132
11898
11232
11001
10770
10583
10399
9810
9612
9638
9922
10443
11049
11767
12365
12839
13675
14183
14682
15140
15590
15935
16047
15642
14851
13818
12975
11886
11520
11255
11076
10918
10795
10636
10529
10457
10372
10354
10404
10432
10480
10574
10727
11098
11304
11513
11722
11889
12026
12384
12654
12905
13183
13488
13350
13066
12909
12854
12767
12658
12491
12528
12626
12592
12498
12243
12130
12235
12482
12633
12695
12917
12941
12740
12323
11837
10792
10499
10273
10068
9912
9796
9798
9984
10375
11338
11829
12417
13114
13725
14761
15256
15628
15536
15020
14237
12233
11378
10798
10460
10204
10165
10456
10781
11001
11144
11313
12096
12539
13076
13750
14626
15288
15308
15345
15085
14329
13354
11949
11540
11241
10877
10592
10506
10553
10638
10724
10548
10483
10666
10765
10656
10427
10284
10361
10714
11243
11715
12117
13035
13248
13459
13789
14439
15107
15764
15687
15464
15152
14563
12563
11460
10643
10271
10166
10444
10633
10763
10843
10749
10471
10442
10719
11309
11784
12139
12778
13173
13473
13584
13684
13937
14231
13782
13103
12463
11940
10792
10348
10144
10220
10555
10903
11290
11513
11489
11355
11556
12078
11572
10973
10514
10295
11391
12844
14514
16030
16938
17294
17264
16483
15587
14997
14593
12833
11723
10854
10260
9693
9089
8736
8705
8791
8742
8533
8326
8251
8399
8840
9590
10639
13275
15031
16444
17257
17459
16364
15388
14357
13489
12776
11627
10990
10502
10125
9229
8077
7074
6586
6434
6457
6550
7002
7947
9108
10163
12465
14312
16774
19279
21397
23105
21659
19348
16847
14679
13015
10736
10088
9533
9247
9299
9349
9076
9069
9630
10338
11003
11534
11593
11264
11246
11517
12101
13222
13345
13325
13253
12826
11549
10573
9403
8415
7857
7871
8321
8856
9232
9478
9951
10619
11441
12407
14834
15694
15746
15350
14974
15117
16966
18116
18637
17915
16056
12200
10832
9879
9290
8907
8737
9132
10189
11463
12880
16010
16913
17123
16716
15785
13002
11878
10958
10229
9752
9482
9523
9883
10183
9234
8373
7858
7509
7158
6780
6600
6751
6986
7212
7616
8429
9934
11999
14217
16653
19103
20522
20341
19320
18022
16408
14637
13103
13363
13626
13745
13936
13950
12239
11116
9959
8812
7871
7244
7115
7414
7926
8467
9089
9812
10877
12449
15098
15659
15755
15581
15341
14815
11492
9774
8520
7884
7854
8171
8714
9196
9950
11226
12638
14027
16678
17714
17864
16922
15523
14299
11628
9939
8497
7786
7902
8396
8952
9842
11137
12409
13589
15002
17667
17145
16024
15060
14037
11793
11159
10731
10380
10084
10239
10988
11693
12279
12418
12073
10852
10456
10369
10314
10117
10079
10758
11681
12806
13979
14976
15252
14727
14472
14319
14244
14502
14460
13724
12298
10553
7905
7128
6677
6621
7083
7762
8451
9394
10933
12932
15336
18320
21202
21890
20066
17925
15750
13870
12364
10537
10026
9722
9562
9507
9480
9554
9702
9845
9941
10050
10202
10367
10325
10287
10180
10048
9991
9989
10109
10443
10769
11274
11787
12246
13850
14789
15233
15250
14983
13722
12812
12096
11481
11027
10874
11271
11612
12070
12397
12517
12417
12806
13355
13707
13909
14009
13767
12492
11077
9857
9099
8865
8785
8833
8775
8602
8831
9585
10773
13711
15202
16190
16689
16789
16778
16821
16133
15373
14611
13767
11978
11265
10869
10672
10546
10484
10804
11304
11795
12170
12465
13389
13863
13992
13628
12897
11457
11124
10938
10712
10332
9929
9646
9426
9146
8913
9520
10156
10840
11756
12298
12260
12060
12690
13464
14415
15419
16041
16271
15649
14708
13772
13010
12467
11832
11527
11413
11349
11016
10415
10458
10646
10810
10893
11046
11042
10805
10296
9725
9407
9041
8708
8703
8988
9304
9700
10379
12347
14158
16466
18539
19802
20236
18676
17266
15855
14391
12932
10966
10587
10363
10224
10353
11083
11503
11930
12159
11990
11538
10934
10802
10812
10887
10984
10883
10788
10837
10970
11057
11206
11562
11635
11715
11864
11988
12092
12091
12165
12374
12801
13883
14121
14091
14096
13856
13401
12258
11823
11459
11233
11176
11540
11800
12033
12377
12689
12732
12075
11698
11374
11218
11106
11002
11247
11605
12123
12622
12886
12602
12575
12312
11808
11272
10612
10371
10332
10628
11246
13540
14976
16284
17248
17628
17102
14294
13082
12323
11845
11500
10996
10772
10613
10470
10326
10288
9987
9777
9449
9263
9360
9752
10281
10949
11869
12740
13506
14286
14769
15190
15278
15281
14560
13751
13108
12662
12329
11758
11571
11463
11460
11464
11400
11255
11236
11200
11211
11285
11454
11451
11371
11361
11308
11242
11126
11047
11053
11115
11349
11842
12176
12404
12450
12523
13014
13252
13380
13444
13592
13802
13853
13542
13264
13059
12924
12746
12606
12532
12416
12233
12073
11840
11768
11685
11544
11453
11395
11492
11587
11732
11929
12303
12305
12153
11914
11576
11226
10574
10194
9884
9730
9766
9977
10241
10569
11005
12709
13741
14519
15121
15639
16293
16226
15738
14841
13815
13016
11968
11591
11278
11097
10989
11010
10890
10743
10630
10691
10768
10756
10784
10783
10793
10970
11621
12075
12743
13564
14312
14781
14438
14057
13722
13458
13226
12485
12111
11904
11797
11646
11388
11390
11424
11426
11409
11414
11358
11328
11301
11250
11215
11337
11479
11630
11752
11882
12014
12212
12198
12227
12226
12195
12292
12422
12585
12736
12823
12908
12833
12736
12617
12567
12651
12536
12269
12105
12033
11993
11947
11871
11824
11780
11766
11781
12023
12168
12365
12548
12688
12563
12357
12122
11945
11849
11820
11821
11799
11778
11795
11865
12007
12033
12022
11998
11930
11966
12090
12299
12414
12415
12249
11745
11323
10673
10126
9752
9720
9834
10003
10293
10595
10966
11556
12422
15002
16491
17452
17864
17868
17657
16808
15879
14770
13675
12699
11390
11026
10790
10645
10559
10508
10374
10345
10332
10331
10408
10577
10645
10713
10827
10957
11380
11732
12094
12463
12762
12942
12915
12760
12582
12379
12250
12050
11963
11858
11747
11630
11477
11068
10878
10785
10797
10872
11301
11656
12062
12484
12857
13452
13736
13994
14154
14192
14029
13513
13195
12934
12655
12383
12048
11960
11898
11859
11839
11805
11597
11523
11466
11474
11524
11750
11827
11920
12008
12044
12065
12071
12095
12117
12163
12151
12078
12039
11992
11940
11901
11855
11825
11832
11847
11859
11879
11955
12016
12130
12236
12359
12378
12212
12056
11917
11860
11831
11884
11949
12042
12139
12202
12262
12319
12459
12566
12720
13007
12943
12723
12294
11801
11501
11050
10802
10784
10875
11011
11513
11854
12228
12802
13560
14352
15397
15397
15226
14949
14512
13111
12430
11979
11787
11739
11589
11604
11705
11781
11653
11460
11020
10839
10771
10817
10914
11284
11556
11822
12018
12097
12118
11879
11788
11802
11832
11859
12036
12148
12212
12235
12263
12336
12631
12719
12727
12651
12574
12344
12131
11938
11838
11801
11730
11737
11769
11827
11876
11959
12265
12405
12530
12637
12717
12591
12468
12389
12310
12250
12212
12007
11920
11892
11923
11949
12004
12024
11990
11989
12004
12056
12065
12088
12067
12060
12055
12098
12123
12167
12216
12230
12269
12212
12165
12081
12017
11952
11941
11964
12026
12080
12075
12135
12247
12325
12339
12387
12416
12323
12298
12319
12327
12401
12444
12498
12519
12484
12445
12322
12051
11842
11729
11675
11614
11535
11598
11721
11852
11994
12247
12391
12558
12632
12769
12922
13244
13379
13413
13343
13158
12528
12186
11890
11707
11618
11574
11627
11613
11606
11612
11616
11739
11842
11910
11975
12041
12114
12127
12130
12126
12089
12108
12091
12093
12114
12120
12104
12024
12003
12013
12037
12054
12053
12086
12056
11989
11931
11942
11998
12069
12161
12236
12298
12247
12242
12302
12330
12144
11934
11825
11951
12082
12200
12280
12560
12688
12800
12833
12822
12797
12833
12786
12626
12387
12208
11919
11873
11938
11971
12000
11993
11906
11841
11794
11665
11472
11183
11144
11086
11156
11322
11845
12168
12517
12841
13071
13246
13425
13406
13280
13276
13299
12968
12729
12512
12351
12172
11771
11601
11547
11573
11627
11605
11731
11823
11882
11946
12003
12032
12004
11968
11922
11871
11804
11720
11771
11831
11870
11886
11773
11719
11741
11777
11880
12172
12402
12614
12766
12878
12929
13062
13111
13108
13079
13100
12745
12468
12201
11984
11848
11772
11637
11647
11688
11753
11796
12043
12131
12094
11993
11943
11941
12015
12035
12067
12111
12130
12084
12081
12086
12064
12046
11985
11998
12016
12022
12010
11985
11981
12017
12101
12173
12189
12115
12065
12005
11940
11909
11975
12244
12415
12553
12619
12650
12604
12575
12567
12565
12602
12548
12487
12444
12394
12372
12328
12109
12035
12029
11997
11937
11713
11611
11555
11566
11618
11652
11754
11753
11789
11863
11945
11898
11821
11825
11852
11918
12049
12281
12478
12640
12740
12808
12726
12698
12699
12820
12912
12987
12872
12684
12513
12417
12331
12257
12252
12213
12153
12092
11998
11968
12007
11994
11942
11891
11860
11808
11734
11667
11609
11493
11453
11437
11498
11610
11884
11984
12113
12254
12390
12510
12631
12655
12660
12591
12449
12215
12197
12181
12178
12210
12266
12305
12319
12372
12373
12275
11944
11802
11678
11592
11640
11716
12018
12206
12357
12451
12540
12545
12428
12320
12229
12137
11907
11714
11623
11604
11628
11663
11830
11950
12081
12184
12313
12507
12557
12600
12608
12587
12545
12447
12505
12553
12534
12491
12434
12355
12258
12141
12056
12032
12062
12089
12102
12073
12041
12059
12182
12277
12349
12381
12359
12240
12096
11960
11839
11730
11484
11468
11568
11656
11730
11878
12106
12381
12529
12496
12336
12360
12374
12439
12429
12381
12295
12317
12385
12465
12483
12444
12429
12381
12294
12174
12098
11960
11994
12037
12023
11956
11831
11745
11714
11694
11691
11700
11740
11810
11872
11991
12083
12281
12342
12421
12508
12583
12606
12473
12335
12228
12140
12129
12258
12241
12227
12242
12298
12411
12363
12276
12255
12314
12386
12503
12500
12291
12102
11912
11725
11690
11710
11704
11710
11749
11776
11822
11909
12048
12164
12504
12653
12804
12863
12801
12618
12545
12504
12538
12509
12363
12030
11967
11878
11849
11918
12022
12056
12071
12088
12039
11958
11910
11903
11928
11962
11922
11850
11849
11930
12019
12108
12188
12177
12179
12194
12203
12182
12197
12201
12187
12104
12104
12091
12108
12160
12194
12216
12196
12166
12159
12109
12020
11897
11882
11947
12025
12151
12242
12357
12315
12182
12034
12008
12108
12444
12554
12641
12693
12704
12664
12598
12496
12435
12402
12278
12020
11966
11992
12081
12196
12271
12267
12239
12272
12299
12307
12211
12159
12097
11992
11879
11722
11671
11647
11644
11610
11664
11763
11886
12083
12272
12343
12239
12216
12204
12188
12214
12305
12384
12405
12395
12411
12396
12366
12346
12326
12261
12240
12232
12226
12231
12228
12164
12088
12044
11993
11980
11982
11989
12011
12025
12054
12081
12114
12163
12237
12286
12301
12266
12201
12049
11985
11961
11950
11944
12065
12119
12168
12218
12231
12237
12267
12329
12356
12362
12344
12203
12075
11951
11859
11815
11814
11886
12025
12144
12232
12330
12359
12272
12208
12192
12237
12245
12291
12291
12192
12053
11875
11761
11873
12078
12322
12475
12643
12745
12906
13034
13037
12603
12315
12093
11835
11648
11628
11712
11691
11763
11866
11939
12131
12217
12269
12359
12422
12349
12151
12062
12064
12049
12019
11912
11772
11632
11523
11490
11559
11663
11848
12079
12247
12386
12583
12590
12665
12731
12706
12525
12416
12344
12316
12343
12375
12352
12384
12407
12421
12417
12359
12309
12231
12178
12114
11867
11741
11648
11660
11620
11624
11659
11710
11730
11793
11921
12202
12272
12329
12385
12413
12405
12279
12281
12391
12478
12476
12387
12366
12366
12346
12281
12171
11786
11602
11537
11612
11758
12225
12371
12399
12314
12304
12426
12490
12494
12448
12370
12328
12268
12309
12362
12301
12145
11965
11901
11913
12048
12220
12320
12368
12361
12338
12382
12446
12465
12372
12256
12194
12131
11944
11843
11774
11704
11638
11591
11453
11420
11497
11671
11844
12091
12159
12221
12226
12230
12264
12162
12072
12042
12116
12194
12286
12376
12504
12578
12654
12658
12490
12483
12493
12505
12534
12509
12470
12470
12404
12370
12358
12294
12211
12150
12017
11858
11604
11531
11473
11461
11557
11796
11917
12061
12144
12167
12195
12209
12201
12239
12304
12356
12285
12142
12065
12070
12100
12302
12542
12668
12652
12685
12666
12602
12569
12582
12553
12409
11956
11810
11728
11642
11563
11507
11421
11414
11424
11446
11490
11635
11661
11723
11935
12226
12508
12851
12855
12851
12866
12857
12776
12787
12814
12757
12652
12483
12459
12422
12413
12389
12314
12078
11949
11799
11634
11559
11617
11726
11767
11959
12164
12256
12128
12015
11883
11811
11768
11642
11570
11589
11698
11850
12061
12087
12079
11972
11864
11772
11752
11853
11945
12083
12213
12375
12417
12450
12474
12547
12576
12599
12584
12530
12489
12543
12674
12744
12775
12753
12724
12610
12471
12313
12170
11988
11853
11626
11521
11480
11492
11492
11638
11715
11801
11856
11941
12027
12167
12264
12372
12493
12646
12888
12955
12925
12817
12705
12574
12318
12252
12211
12256
12322
12557
12613
12574
12508
12398
12212
12182
12101
11981
11941
11978
11751
11602
11542
11504
11481
11470
11428
11377
11330
11365
11491
12009
12217
12370
12330
12150
11711
11778
11973
12191
12318
12427
12451
12507
12590
12599
12558
12459
12351
12180
12064
12000
11952
11868
11757
11610
11470
11425
11605
11800
12057
12366
12663
12692
12632
12647
12742
12797
12782
12764
12864
12970
12930
12889
12714
12613
12424
12273
12058
11683
11604
11535
11513
11562
11647
12001
12189
12196
12055
11904
11941
12111
12429
12724
12917
13035
13148
13127
12990
12743
12454
11863
11574
11319
11134
11062
11206
11304
11354
11455
11578
11721
11983
12192
12410
12577
12675
12797
12770
12664
12476
12165
11788
11139
10957
10889
10943
10994
11213
11370
11540
11723
11993
12275
12597
12723
12847
12946
13016
13086
13074
13057
13029
12974
12780
12698
12654
12678
12753
12812
12723
12678
12644
12593
12462
12068
11872
11735
11617
11565
11509
11395
11385
11393
11465
11562
11795
11908
12090
12209
12315
12467
12525
12496
12491
12462
12409
12355
12362
12318
12259
12237
12219
12269
12265
12187
12138
12160
12434
12582
12631
12622
12493
12037
11804
11642
11526
11472
11696
11896
12186
12269
12155
11966
11669
11607
11562
11519
11511
11428
11486
11658
11977
12256
12541
12760
12724
12650
12612
12566
12202
12112
12109
12193
12279
12326
12124
12042
12085
12210
12300
12411
12432
12425
12420
12379
12123
12007
11944
11948
12017
12099
12153
12171
12253
12321
12341
12360
12438
12527
12613
12625
12667
12754
12662
12544
12462
12340
12005
11847
11693
11586
11587
11866
12034
12214
12325
12379
12359
12473
12474
12452
12377
12253
11883
11601
11318
11048
10867
10757
10811
10983
11152
11344
11580
12205
12441
12622
12850
13086
13191
13005
12879
12792
12713
12647
12545
12424
12275
12121
11979
11906
11996
12075
12171
12318
12379
12338
12262
12122
12066
12067
12048
11988
11974
11961
11916
11884
12006
12170
12375
12438
12494
12567
12569
12645
12742
12775
12645
12626
12543
12332
12131
12041
11707
11526
11341
11199
11128
11195
11395
11633
11870
12072
12243
12474
12481
12561
12667
12770
12793
12684
12586
12513
12478
12402
12338
12286
12255
12211
12188
11918
11763
11662
11633
11553
11489
11591
11756
11921
12134
12418
12667
12643
12650
12630
12599
12514
12499
12441
12301
12118
11953
11533
11339
11204
11119
11105
11319
11454
11579
11703
11804
12208
12429
12582
12655
12593
12504
12525
12643
12774
12797
12673
12396
12325
12333
12471
12672
12839
12932
12969
12983
12933
12845
12642
12491
12349
12216
12021
11545
11408
11335
11316
11358
11473
11772
11821
11727
11703
11751
11718
11661
11649
11624
11617
11698
11782
11850
12010
12242
12464
12706
12708
12770
12812
12814
12730
12702
12729
12799
12804
12735
12487
12382
12244
12110
12097
11930
11771
11707
11710
11779
11835
12019
12123
12180
12166
12099
12034
11987
11904
11761
11603
11501
11575
11688
11768
11841
11847
11963
12137
12295
12380
12443
12355
12385
12463
12473
12439
12411
12373
12296
12210
12102
12031
12133
12280
12403
12586
12709
12860
12975
13039
13043
12963
12867
12420
12145
11868
11608
11421
11251
11240
11240
11320
11380
11453
11726
11950
12149
12229
12270
12819
13200
13389
13421
13379
13352
13303
13265
13081
12792
12546
12186
11945
11641
11291
10932
10678
10397
10512
10736
10923
11059
11480
11684
11938
12194
12353
12358
12267
12116
12013
11965
11927
11794
11740
11732
11764
11815
11981
12144
12280
12376
12446
12468
12547
12612
12681
12821
12992
13185
13160
13123
13105
13049
12802
12647
12519
12354
12210
12039
11761
11665
11601
11601
11643
11795
11882
12014
12178
12291
12300
12383
12417
12419
12353
12256
12132
12087
12054
12038
12026
12018
12052
12173
12233
12280
12248
12246
12277
12258
12232
12181
12140
12108
12060
12004
11974
11942
12083
12212
12257
12237
12172
12047
12025
12067
12123
12199
12307
12369
12356
12316
12205
12097
12156
12140
12054
11989
11988
12347
12504
12530
12460
12370
12268
11930
11711
11554
11441
11443
11478
11517
11535
11578
11681
11834
12015
12092
12294
12492
12664
12863
12883
12849
12722
12566
12410
12134
11998
11948
11953
11960
11994
12182
12216
12078
11837
11735
11782
11884
11960
12006
12039
12250
12397
12633
12916
13120
13125
13092
12990
12807
12641
12420
12084
11977
11919
11889
11887
11844
11822
11732
11680
11694
11890
11986
12078
12131
12073
12016
12026
12133
12307
12520
12516
12426
12411
12445
12519
12597
12629
12489
12348
12225
12146
12034
11763
11666
11552
11399
11292
11243
11219
11235
11295
11454
11604
11963
12207
12379
12525
12588
12636
12603
12577
12497
12415
12303
12122
12197
12386
12608
12843
13050
12864
12583
12312
12102
11923
11768
11768
11775
11829
11948
12116
12156
12178
12218
12277
12182
12076
12083
12155
12225
12254
12342
12340
12323
12283
12283
12318
12286
12248
12225
12190
12125
12047
12014
11996
12020
11961
11962
11949
11944
11970
12100
12371
12444
12444
12392
12276
12194
12063
12073
12123
12156
12171
12286
12319
12259
12289
12334
12388
12426
12388
12282
12159
12081
11820
11739
11718
11657
11602
11454
11427
11511
11637
11767
11854
11969
12117
12233
12345
12452
12570
12625
12646
12751
12819
12922
12976
12835
12676
12541
12407
12235
12170
12131
12049
11908
11871
11881
11935
11991
12026
12065
11977
11919
11935
11954
11943
11869
11830
11792
11850
11945
12010
12091
12125
12187
12298
12459
12657
12553
12404
12258
12146
12057
12068
12154
12201
12227
12234
12357
12427
12459
12422
12289
12039
11948
11824
11695
11685
11713
11809
11886
11882
11794
11717
11823
11948
12023
12073
12117
12161
12289
12298
12399
12541
12606
12722
12760
12830
12881
12805
12647
12523
12422
12239
12093
11954
11936
12063
12191
12232
12233
12211
12154
12103
12065
12050
12034
12003
11993
12026
12035
12005
11922
11977
12064
12120
12115
12140
12159
12150
12096
12043
12018
12004
11981
12000
12034
12061
12285
12406
12463
12473
12437
12373
12243
12151
12015
11938
11926
11918
11926
11950
12004
12091
12185
12348
12424
12422
12307
12205
12166
12296
12434
12455
12382
12275
12066
11979
11953
11927
11937
11934
11983
12051
12126
12115
12076
12002
11972
11985
12058
12137
12305
12368
12418
12458
12375
12133
12092
12096
12094
12093
12072
12065
12066
12115
12187
12241
12231
12214
12179
12181
12188
12147
12197
12333
12441
12565
12599
12455
12332
12249
12219
12153
12107
12042
12001
12025
12059
12048
12002
11896
11802
11701
11618
11626
11734
11808
11906
12056
12554
12833
12999
12969
12746
12481
12085
12009
12055
12127
12148
12154
12149
12180
12212
12292
12330
12303
12267
12237
12220
12168
12109
12078
12133
12148
12168
12128
11899
11840
11913
12079
12199
12295
12341
12330
12275
12203
11990
11911
11911
11973
12060
12139
12159
12131
12100
12105
12151
12148
12074
12071
12034
12037
12090
12318
12375
12409
12486
12512
12414
12321
12214
12118
12018
11913
11973
11980
11998
12001
12038
12097
12068
12046
12024
11979
11885
11866
11882
11951
12057
12125
12105
12061
12045
12050
12076
12078
12033
12020
12033
12061
12109
12286
12411
12539
12664
12800
12833
12841
12822
12739
12613
12461
12377
12292
12305
12293
12267
12184
12149
12084
12080
12178
12191
12146
12070
12019
12006
11983
11889
11867
11842
11833
11911
11973
11926
11884
11854
11816
11682
11617
11595
11625
11704
11817
12097
12291
12415
12490
12508
12363
12285
12283
12341
12387
12387
12274
12201
12144
12088
11995
11905
11880
11921
12044
12201
12381
12519
12461
12414
12446
12471
12496
12460
12357
12301
12407
12611
12516
12337
12114
11881
11707
11577
11617
11670
11664
11723
12094
12229
12337
12419
12442
12484
12475
12406
12289
12254
12214
12030
11993
11988
11918
11866
11909
11986
12067
12142
12236
12330
12394
12427
12460
12434
12351
12145
12095
12100
12163
12230
12255
12342
12317
12233
12158
12211
12347
12308
12298
12199
12136
11937
11812
11730
11687
11707
11791
12015
12049
12070
12092
12101
12013
11929
11881
11831
11842
11865
11949
12035
12124
12184
12286
12361
12336
12265
12246
12229
12248
12227
12191
12138
12091
12067
12054
11970
11800
11663
11558
11484
11526
11579
11654
11782
11909
12103
12242
12257
12238
12338
12777
13052
13395
13697
14042
14374
14448
14201
13888
13574
13258
12771
12376
11995
11733
11387
10998
11034
11004
10922
10767
10628
10449
10442
10545
10709
10903
11333
11507
11669
11833
12027
12257
12921
13330
13646
13784
13736
13417
13265
13040
12781
12541
12371
12242
12214
12131
12002
11920
11758
11715
11691
11682
11686
11779
11787
11795
11807
11819
11791
11752
11709
11634
11617
11610
11710
11796
11894
11962
12099
12303
12653
12931
13077
13095
13093
13017
13002
12910
12752
12549
12174
12003
11871
11812
11770
11758
11604
11461
11313
11224
11216
11215
11284
11430
11551
11713
11936
12395
12595
12727
12794
12869
13065
13244
13499
13706
13752
13581
13556
13401
13096
12692
12368
11832
11672
11528
11441
11390
11380
11405
11429
11459
11449
11480
11558
11609
11684
11724
11727
11772
11758
11725
11662
11543
11361
11017
11017
11141
11384
11748
12472
12717
12866
12888
12889
13188
13486
13839
14118
14193
14160
13520
13125
12800
12552
12344
11964
11813
11699
11601
11529
11479
11536
11608
11662
11731
11797
11835
11818
11857
11846
11825
11805
11800
11808
11808
11767
11668
11499
11439
11378
11397
11422
11583
11676
11732
11758
11852
12009
12533
12931
13256
13553
13847
14252
14245
14048
13639
13174
12761
12065
11870
11762
11730
11700
11621
11581
11523
11482
11449
11183
11099
11039
11052
11149
11289
11715
11979
12152
12213
12258
12400
12461
12667
12892
12971
13033
13265
13348
13324
13177
12948
12508
12415
12324
12243
12274
12232
12098
11955
11833
11748
11645
11464
11447
11545
11616
11666
11854
11923
11968
11943
11867
11757
11632
11649
11678
11699
11721
11590
11464
11380
11373
11343
11422
11549
11755
12101
12531
12955
13647
13986
14402
14839
15055
14522
13727
12905
12276
11874
11655
11469
11349
11253
11189
11183
11111
11061
11080
11102
11091
11080
11053
11143
11209
11301
11464
12048
12471
12995
13506
13955
14684
14708
14330
13812
13258
12752
11870
11392
11000
10769
10709
10927
11022
11076
11147
11326
11670
12637
12988
13249
13466
13570
13295
13055
12872
12850
12836
12680
12506
12308
12094
11882
11770
11555
11390
11272
11259
11325
11505
11550
11610
11635
11650
11655
11629
11532
11424
11384
11425
11628
11716
11807
11941
12101
12228
12356
12463
12597
12766
12903
13041
12963
12806
12621
12466
12323
12370
12625
12876
13017
13083
13046
12841
12465
12011
11662
11120
10789
10433
10170
10215
10436
10882
11084
11328
11554
11715
12214
12488
12773
13057
13241
13469
13489
13266
13100
13087
13137
13009
12965
12915
12860
12951
13362
13419
13366
13256
13109
13032
12687
12351
11994
11762
11603
11098
10899
10844
10909
11041
11225
11459
11589
11778
11879
11973
11977
11793
11541
11259
10926
10492
10560
10807
11152
11517
11855
12429
12716
12709
12307
11776
11188
11167
11236
11446
11788
12256
13200
13661
14270
15160
16262
17345
16924
16020
14820
13679
12458
11942
11387
10944
10644
10459
10288
10242
10207
10161
10077
9944
10006
10118
10250
10378
10581
10870
11339
11560
11831
11990
12079
12239
12390
12601
12888
13175
13084
12906
12768
12709
12736
12833
12961
12997
13030
13083
13049
12844
12825
12667
12513
12503
12585
12943
12843
12530
12112
11681
11190
11151
11148
11053
10681
10059
10065
10255
10465
10672
11157
12510
12961
13306
13624
13878
14356
14674
14811
14599
14102
13632
12710
12153
11791
11611
11555
11400
11282
11010
10524
9948
9336
8887
8749
8732
8706
9000
9754
10757
12417
13177
14050
14916
15602
16179
16501
16789
16647
15951
14802
12572
11673
10809
10071
9531
9125
8859
8763
8901
9281
9774
10271
11844
12888
13714
14326
14847
15548
15669
15605
15313
14875
13881
13169
12259
11320
10475
9804
9569
9725
9857
9934
9934
10086
10467
11081
11769
12414
12742
12711
12806
12721
12396
11871
10978
10532
10292
10324
10517
10642
11330
11502
11400
11076
10893
11279
12194
13739
15664
17382
18305
17264
15871
14644
13671
12798
11497
11177
10980
10887
10967
11758
12058
12279
12492
12473
12117
10745
10490
10261
9798
9401
9146
9180
9493
10047
10635
12119
12637
12773
12647
12349
12545
12756
12837
13035
13343
13814
13961
14200
14313
14022
13398
12007
11385
10953
10855
10718
10464
10859
11555
12149
12810
13650
15274
15460
15227
14683
13574
10860
9726
9082
8948
9182
9444
9700
10055
10702
11527
12403
14743
15930
16423
16285
15832
14206
13081
11920
11071
10525
10204
9813
9642
9760
10301
11246
12259
13002
13191
12681
12472
12440
12428
12475
12651
12674
12567
12295
12003
11722
10893
10671
10691
10752
10608
10235
10302
10545
10969
11464
12014
12899
13266
13427
13491
13758
14334
14047
13400
12601
11993
11823
11936
12131
12208
12059
11503
10628
10756
11188
11792
12258
12797
13259
13757
14094
14050
13883
14203
14032
13615
12954
12147
10516
10098
9835
9671
9558
9403
9170
9162
9500
9930
10354
10825
11462
13232
14237
15274
16307
17103
17329
16874
16253
15325
14135
13071
11730
11313
10992
10820
10734
10617
10571
10473
10170
9762
9555
9528
9716
10072
10714
10971
11225
11465
11708
12057
13047
13326
13322
13328
13287
12453
11948
11824
11976
12256
12947
13128
13023
12504
11871
11391
10441
10207
10223
10290
10224
10134
10806
11871
12960
13792
14508
15670
16123
16589
17001
17163
16264
15016
13477
12055
10936
9715
9455
9394
9509
9716
9995
10285
10574
10820
11072
11314
12142
12659
13100
13413
13384
13073
12169
11770
11448
11270
11176
11102
11121
11196
11273
11504
11793
12027
11861
11603
11415
11352
11568
11576
11660
11843
12075
12357
12877
13412
13880
14281
14607
14860
14573
13890
13051
12369
11565
11341
11107
10952
11005
11183
11886
12483
13063
13377
13397
12802
12274
11821
11480
11209
11001
10824
10764
10735
10705
10794
11110
11427
11751
12162
12603
13163
13200
13129
13078
13041
13212
13467
13324
13099
12822
12502
11832
11614
11434
11312
11253
11297
11378
11446
11657
11972
12260
12479
12514
12462
12343
12224
11960
11884
11902
12040
12224
12432
12927
13137
13304
13262
12999
12618
12362
12062
11814
11615
11477
11253
11227
11229
11282
11331
11390
11466
11623
11850
12129
12416
12722
12799
12841
12815
12747
12746
12814
12826
12756
12610
12443
12447
12406
12340
12217
12043
11712
11571
11476
11429
11425
11453
11460
11476
11535
11691
11922
12305
12438
12477
12485
12523
12643
12662
12671
12693
12711
12737
12605
12443
12288
12183
12125
12005
11851
11696
11579
11537
11591
11654
11732
11861
11954
12020
12270
12518
12701
12694
12547
12378
12319
12236
12167
12162
12166
12086
12054
12054
12054
12061
11831
11619
11408
11259
11247
11379
11435
11465
11534
11631
11746
12135
12541
13026
13316
13306
12737
12417
12120
11880
11783
11817
12096
12417
12818
13250
13464
13568
13482
13271
12890
12364
11689
11535
11458
11498
11575
11641
11969
12256
12403
12386
12351
12417
12450
12435
12347
12268
12195
12161
12205
12277
12348
12399
12167
11937
11848
11856
11786
11610
11580
11566
11581
11556
11519
11600
11652
11666
11718
11819
12120
12308
12471
12504
12608
12751
12764
12658
12532
12400
12285
12130
12059
11975
11967
11956
11986
12245
12408
12490
12503
12494
12344
12200
12044
11935
11892
11824
11793
11765
11727
11741
11741
11762
11760
11758
11714
11686
11799
11856
11866
11927
12033
12201
12487
12603
12706
12850
12998
13157
13063
12911
12754
12636
12594
12402
12204
12000
11801
11688
11642
11669
11679
11691
11716
11931
12123
12339
12519
12631
12609
12296
12191
12116
12069
12058
11939
11772
11548
11366
11275
11285
11429
11541
11660
11816
12095
12713
13140
13532
13685
13711
13598
13470
13292
13059
12844
12665
12120
11754
11481
11269
11130
10940
10813
10714
10675
10651
10778
11387
11810
12362
12804
13137
13474
13614
13681
13651
13556
13248
13155
12982
12690
12300
11996
11608
11556
11543
11491
11460
11444
11463
11531
11587
11631
11676
11808
11840
11922
11968
11975
11901
11917
11952
11957
11984
12072
12130
12147
12215
12328
12457
12465
12484
12515
12520
12456
12339
12340
12377
12380
12333
12250
12134
12038
11966
11956
11954
11939
11986
12072
12161
12239
12282
12207
12137
12081
12056
12025
11977
11954
11931
11891
11870
11897
12052
12162
12080
11915
11809
11850
11957
11988
12066
12123
12226
12240
12313
12502
12763
13006
13250
13216
13058
12833
12698
12664
12548
12380
12063
11623
10908
10624
10311
10003
9853
9799
9809
9950
10278
10809
12413
13455
14569
15583
16328
16485
15990
15301
14689
14240
13280
12720
12254
11929
11610
11302
11050
10987
10988
11001
11067
11171
11228
11300
11350
11393
11409
11302
11301
11330
11382
11490
11781
11928
12060
12129
12116
12024
11998
12010
12101
12188
12239
12159
12095
12025
11972
12019
12041
12035
12040
12096
12207
12372
12508
12502
12461
12433
12362
12201
12098
12029
11964
11929
11889
11916
11917
11919
11983
12080
12346
12422
12459
12578
12699
12202
11830
11624
11596
11704
11872
11971
11965
12051
12295
12602
13152
13332
13399
13391
13320
13199
12873
12765
12561
12344
12126
11927
11778
11686
11633
11658
11875
11982
12069
12100
12128
12187
12252
12300
12433
12512
12455
12096
11897
11781
11710
11670
11660
11702
11724
11772
11835
11905
11996
12002
12009
11988
12006
12063
12074
12051
12022
11990
11981
11904
11819
11864
11982
12108
12401
12520
12572
12577
12550
12481
12343
12317
12267
12239
12265
12301
12251
12165
12037
11896
11778
11697
11688
11708
11700
11673
11811
11895
12055
12252
12500
12681
12504
12398
12370
12350
12369
12483
12518
12448
12304
12185
12056
12015
11995
12002
11985
11965
12119
12304
12408
12452
12512
12438
12256
12111
12066
11943
11770
11820
11974
12158
12317
12504
12899
12904
12800
12578
12282
11949
11870
11911
11932
11957
11971
12039
12044
12055
12083
12141
12390
12537
12563
12573
12544
12425
12442
12504
12444
12333
12231
12058
12015
11955
11870
11800
11856
11840
11779
11793
11804
11770
11709
11731
11817
11900
11965
12145
12228
12310
12396
12471
12458
12293
12281
12254
12215
12156
12122
12135
12103
12076
12074
12194
12219
12226
12224
12220
12172
12068
12037
12020
12035
12041
12082
12112
12115
11983
11914
11826
11698
11733
11852
11935
11907
11884
11985
12170
12373
12559
12648
12502
12273
12136
12151
12317
12520
12480
12370
12294
12293
12424
12539
12616
12533
12355
12236
12089
12053
12080
12155
12269
12597
12616
12582
12508
12400
12299
12145
12041
12024
12067
12051
11797
11750
11741
11804
11821
11774
11759
11758
11823
11878
11994
12116
12117
12131
12147
12117
12028
12008
12024
12024
12041
12103
12363
12422
12499
12675
12820
12941
12882
12710
12433
12225
11955
11838
11714
11652
11649
11724
11891
11893
11867
11952
12051
12070
12135
12173
12130
12033
11957
12019
12147
12259
12354
12414
12679
12805
12926
12930
12770
12562
12261
12157
12066
12011
11938
11835
11712
11633
11613
11680
11867
11970
12068
12145
12167
12130
12055
12045
11953
11852
11885
12217
12249
12282
12289
12276
12238
12328
12358
12401
12481
12584
12579
12506
12431
12403
12424
12417
12287
12130
11991
11965
12025
12230
12322
12356
12314
12270
12112
12004
11928
11900
11881
11884
11834
11800
11790
11821
11857
11898
11924
11970
11963
11934
11941
11988
12048
12104
12185
12287
12391
12393
12448
12463
12433
12366
12371
12382
12398
12382
12333
12218
12177
12173
12197
12229
12138
12078
12028
12002
12078
12184
12174
12124
12081
12023
11942
11841
11854
12049
12358
12597
12666
12554
12364
12212
12139
12109
12126
12214
12251
12214
12185
12091
11964
11804
11755
11759
11736
11665
11715
11785
11854
11902
12124
12336
12531
12708
12869
12881
12795
12630
12451
12248
12042
11869
11875
11888
11895
11873
11816
11907
12011
12074
12069
12074
12133
12178
12242
12334
12473
12607
12571
12493
12418
12328
12249
12241
12215
12184
12183
12217
12198
12133
12078
12060
12025
11962
11978
12017
12132
12239
12304
12318
12244
12147
12054
11946
11875
11904
11985
12115
12241
12273
12242
12156
12044
11908
11770
11757
11785
11823
11876
11871
12034
12116
12243
12378
12469
12544
12698
12611
12446
12296
12212
12087
12055
12069
12072
12122
12127
12004
12042
12159
12232
12276
12463
12631
12755
12815
12829
12691
12478
12305
12187
12076
11995
11872
11771
11633
11523
11439
11471
11541
11664
11833
12021
12125
12041
12021
11987
11860
11657
11477
11552
11624
11774
12006
12243
12697
12829
12909
12940
12960
12907
12836
12761
12702
12759
12648
12622
12613
12620
12600
12611
12322
12154
11996
11870
11812
11827
11889
11931
11934
11849
11689
11355
11274
11266
11388
11575
11826
12037
12208
12348
12407
12364
12293
12262
12264
12250
12245
12146
12069
12054
12068
12111
12380
12525
12554
12489
12402
12363
12294
12215
12081
11996
11921
11938
12042
12167
12282
12372
12416
12535
12518
12399
12240
12146
12189
12176
12111
11998
11906
11747
11724
11762
11848
11916
11950
12152
12146
12106
12165
12253
12324
12366
12481
12613
12706
12696
12629
12653
12641
12543
12378
12113
12013
11999
12025
11938
11629
11498
11346
11190
11061
11032
11407
11644
11880
12174
12440
12566
12567
12616
12653
12641
12609
12635
12651
12681
12695
12636
12449
12358
12245
12118
12031
12014
12105
12173
12303
12410
12481
12500
12456
12410
12286
12198
11981
11805
11721
11661
11592
11510
11416
11416
11421
11391
11307
11323
11513
11763
12060
12312
12498
12618
12773
12922
13018
13043
12811
12711
12690
12601
12443
12223
12201
12186
12239
12278
12281
12350
12336
12256
12145
12038
11928
11869
11755
11664
11652
11659
11631
11698
11784
11846
11915
12034
12153
12295
12398
12449
12498
12379
12297
12366
12490
12596
12597
12531
12454
12383
12329
12341
12395
12390
12319
12183
11931
11424
11277
11228
11176
11154
11326
11448
11641
11917
12194
12399
12832
13077
13251
13283
13107
12578
12393
12299
12262
12296
12489
12622
12714
12634
12441
12175
11745
11616
11551
11493
11451
11408
11426
11501
11656
11873
12047
12363
12449
12462
12508
12574
12610
12464
12294
12147
11971
11857
11915
12020
12130
12230
12340
12433
12398
12369
12387
12359
12323
12311
12303
12288
12276
12256
12202
12154
12116
12068
12036
12021
12058
12095
12047
11979
11919
11901
11956
12038
12110
12109
12085
12065
12065
12120
12180
12189
12131
12044
11985
11973
12011
12211
12358
12479
12570
12628
12470
12365
12294
12299
12351
12419
12776
12961
13096
13138
13041
12482
12233
12018
11834
11646
11309
11220
11218
11187
11082
10998
11017
11155
11295
11427
11532
11763
11925
12079
12233
12390
12553
12701
12671
12646
12580
12486
12476
12415
12350
12341
12361
12289
12280
12296
12331
12412
12527
12608
12679
12740
12793
12776
12639
12576
12464
12246
12020
11817
11551
11486
11432
11430
11449
11567
11556
11514
11532
11625
11780
12203
12408
12508
12535
12555
12447
12377
12331
12310
12299
12279
12205
12160
12141
12142
12159
12217
12242
12286
12357
12399
12397
12401
12425
12468
12519
12541
12360
12308
12250
12159
12058
11900
11919
12018
12133
12242
12222
12142
12011
11926
11819
11717
11751
11890
12001
12109
12288
12410
12416
12370
12322
12280
12235
12273
12405
12568
12718
12823
12729
12512
12333
12129
11910
11703
11516
11533
11604
11672
11676
11533
11434
11368
11351
11410
11456
11447
11413
11426
11560
11754
12157
12396
12624
12889
13220
13658
13687
13549
13316
13003
12748
12612
12609
12544
12484
12456
12385
12358
12347
12297
12238
11980
11826
11675
11595
11510
11423
11341
11358
11380
11408
11474
11622
11656
11618
11663
11756
11906
12297
12566
12696
12722
12654
12571
12540
12476
12417
12434
12554
12489
12452
12457
12500
12537
12587
12564
12503
12385
12241
12053
12073
12096
12095
12174
12232
12256
12275
12373
12487
12548
12344
12194
11982
11774
11676
11660
11729
11752
11715
11622
11442
11172
11175
11177
11133
11160
11525
11727
11921
12101
12412
12661
12913
13051
13171
13234
13229
12898
12665
12526
12469
12412
12307
12019
11827
11705
11625
11550
11602
11716
11877
12050
12207
12390
12451
12489
12456
12390
12317
12194
12189
12269
12420
12522
12470
12406
12301
12199
12124
12116
12271
12262
12217
12109
12019
11764
11713
11673
11622
11536
11521
11710
11881
12072
12219
12486
13018
13122
13155
13086
13023
12876
12766
12572
12268
12020
11910
11793
11648
11551
11482
11411
11449
11519
11581
11614
11671
11735
11834
11872
11877
11804
11770
12263
12677
13041
13343
13477
13411
13313
13215
13080
12855
12666
12178
11908
11681
11524
11391
11272
11177
11098
11075
11045
11074
11363
11526
11666
11800
11976
12380
12530
12623
12620
12501
12411
12214
12117
12038
12037
12207
12924
13342
13507
13489
13305
12835
12575
12341
12101
11934
11824
11705
11723
11746
11744
11667
11910
12007
12002
11996
12026
12016
12039
12090
12205
12301
12357
12335
12319
12314
12274
12246
12161
12004
11848
11754
11822
12082
12554
12627
12721
12732
12617
12445
12402
12344
12242
12129
12055
11985
11851
11694
11593
11544
11495
11506
11578
11616
11761
12190
12324
12388
12459
12612
12809
12973
12856
12717
12577
12499
12192
11942
11717
11568
11502
11503
11740
11889
11861
11690
11566
11640
11756
11984
12263
12520
12723
12872
12914
12965
12947
12920
12758
12599
12396
12187
11997
11700
11561
11368
11260
11276
11367
11646
11786
11924
12077
12250
12482
12507
12552
12618
12626
12538
12316
12240
12209
12173
12140
12122
12135
12154
12146
12131
12003
11960
11935
11909
11923
12026
12278
12344
12452
12635
12799
12862
12888
12829
12796
12705
12596
12411
12367
12295
12229
12166
11998
11816
11592
11418
11265
11150
10927
10875
10914
11084
11326
11873
12095
12292
12396
12500
12691
12802
12897
12880
12875
12882
12782
12612
12449
12306
12235
11979
11858
11790
11796
11817
11799
11702
11829
11990
12139
12217
12214
12147
12076
12010
11940
12060
12115
12086
12019
12017
11975
12016
12143
12320
12538
12751
12938
12921
12862
12711
12485
12320
12086
12117
12238
12411
12631
12774
12563
12345
12219
12174
12193
12139
12039
11920
11825
11742
11518
11430
11382
11358
11368
11472
11554
11699
11865
12049
12220
12328
12276
12259
12297
12339
12487
12570
12597
12650
12688
12691
12640
12555
12407
12236
12148
11911
11827
11766
11719
11745
11943
12029
12123
12201
12247
12263
12243
12164
12074
12001
11933
11787
11651
11607
11612
11679
11765
12046
12152
12275
12395
12553
12799
12864
12885
12922
12888
12769
12683
12567
12460
12296
12099
11794
11685
11592
11546
11511
11523
11576
11673
11894
12277
12597
12824
12856
12838
12729
12616
12509
12409
12294
12137
11988
11887
11944
12059
12137
12180
12178
12051
12016
11963
11949
11929
12039
12113
12102
12003
11922
11956
11970
11886
11821
11799
11718
11618
11568
11551
11631
11747
11812
11875
11891
11986
12106
12242
12752
12967
13010
12926
12879
12903
12921
12961
12967
12922
12847
12732
12675
12596
12470
12298
11920
11733
11571
11441
11387
11340
11413
11532
11645
11745
11839
12036
12140
12158
12011
11949
11944
11957
12002
12132
12267
12328
12376
12366
12385
12399
12362
12266
12266
12292
12318
12349
12354
12315
12342
12385
12463
12491
12240
12125
12058
11996
11975
11988
11906
11803
11750
11776
11919
12303
12420
12454
12463
12476
12477
12483
12596
12733
12798
12811
12751
12815
12790
12541
12177
11715
11474
11237
11094
10961
10970
11191
11439
11684
11785
11779
11817
11904
12050
12182
12276
12403
12527
12710
12868
12927
12989
12798
12689
12581
12475
12334
12062
11948
11898
11924
11926
11973
12047
12033
12064
12112
12115
12061
12021
11967
11914
11885
11876
11922
11948
11950
11966
12006
12036
12024
12013
11994
11981
12029
12057
12089
12144
12165
12170
12426
12535
12578
12603
12606
12566
12592
12664
12768
12837
12844
12742
12668
12626
12636
12723
12573
12367
12190
12070
11964
11692
11557
11502
11510
11565
11541
11484
11387
11323
11312
11364
11524
11660
11881
12176
12483
12713
12901
12874
12755
12623
12491
12037
11764
11566
11489
11486
11519
11542
11578
11636
11737
11849
12319
12634
12973
13217
13377
13532
13514
13441
13252
12984
12704
12225
11999
11812
11581
11363
10977
10790
10704
10748
