12157
12157
12166
12170
12185
12173
12154
12143
12130
12094
12060
12044
12051
12062
12079
12086
12089
12120
12127
12131
12125
12129
12126
12125
12136
12148
12150
12158
12152
12152
12149
12143
12129
12126
12126
12128
12125
12125
12132
12131
12118
12119
12116
12116
12118
12124
12121
12121
12129
12148
12150
12148
12148
12143
12151
12133
12126
12130
12130
12149
12160
12150
12143
12139
12146
12150
12138
12131
12124
12120
12113
12089
12090
12095
12094
12098
12097
12128
12158
12171
12168
12159
12129
12111
12093
12068
12074
12078
12097
12110
12102
12091
12103
12105
12103
12109
12098
12093
12079
12068
12070
12089
12110
12125
12152
12172
12192
12190
12166
12134
12136
12147
12147
12129
12090
12103
12127
12153
12153
12134
12131
12137
12145
12138
12131
12071
12067
12072
12069
12073
12083
12092
12110
12132
12140
12139
12121
12125
12123
12117
12120
12133
12148
12164
12178
12175
12170
12169
12189
12194
12190
12188
12164
12148
12123
12094
12076
12057
12053
12067
12094
12101
12100
12098
12094
12093
12110
12116
12131
12155
12159
12165
12154
12151
12141
12114
12097
12077
12065
12048
12049
12079
12120
12150
12166
12179
12172
12162
12154
12147
12125
12114
12115
12111
12115
12137
12171
12181
12184
12212
12227
12204
12186
12148
12097
12066
12016
11986
11961
11952
11939
11935
11967
11992
12040
12088
12124
12180
12194
12199
12195
12185
12179
12180
12169
12166
12159
12159
12144
12140
12145
12158
12154
12152
12135
12124
12120
12126
12133
12157
12158
12149
12135
12129
12147
12144
12128
12108
12077
12056
12063
12073
12094
12114
12123
12159
12154
12148
12151
12155
12131
12090
12093
12112
12121
12132
12145
12149
12153
12155
12155
12157
12144
12140
12129
12124
12128
12122
12122
12125
12124
12122
12091
12075
12065
12059
12076
12102
12132
12155
12165
12163
12158
12147
12144
12132
12117
12106
12106
12091
12100
12105
12118
12117
12094
12123
12155
12168
12151
12126
12137
12144
12127
12119
12129
12126
12111
12104
12100
12118
12117
12099
12087
12074
12072
12083
12085
12092
12090
12093
12097
12153
12184
12219
12238
12256
12222
12204
12184
12163
12147
12140
12070
12047
12049
12045
12053
12077
12071
12068
12071
12086
12083
12027
12030
12041
12053
12044
12057
12076
12090
12106
12121
12105
12106
12121
12136
12150
12178
12254
12277
12286
12282
12263
12226
12182
12149
12133
12104
12083
12098
12120
12146
12156
12159
12137
12120
12100
12097
12093
12101
12094
12108
12125
12133
12129
12096
12103
12110
12108
12096
12115
12116
12118
12100
12087
12086
12109
12118
12110
12113
12120
12101
12067
12052
12072
12089
12118
12176
12185
12175
12172
12171
12180
12170
12148
12129
12118
12121
12121
12122
12120
12126
12129
12114
12104
12101
12110
12107
12068
12057
12070
12090
12105
12107
12130
12146
12157
12169
12181
12186
12185
12169
12150
12152
12158
12166
12144
12129
12117
12093
12098
12134
12153
12162
12147
12116
12118
12115
12105
12102
12095
12090
12099
12133
12160
12169
12146
12144
12147
12139
12131
12132
12118
12113
12102
12090
12103
12138
12133
12117
12105
12109
12135
12139
12148
12136
12104
12084
12079
12079
12075
12068
12057
12062
12066
12065
12078
12118
12170
12246
12244
12223
12190
12156
12124
12099
12087
12075
12061
12056
12081
12100
12113
12138
12173
12183
12172
12176
12197
12223
12209
12201
12190
12164
12140
12107
12059
12053
12051
12056
12051
12071
12097
12117
12133
12156
12178
12165
12157
12165
12153
12143
12050
12008
11988
11979
12001
12097
12128
12147
12146
12132
12121
12081
12097
12106
12096
12088
12110
12121
12131
12129
12127
12134
12152
12163
12171
12173
12168
12182
12207
12218
12212
12209
12207
12184
12153
12128
12118
12140
12150
12127
12107
12096
12079
12076
12090
12087
12085
12067
12066
12069
12072
12055
12040
12035
12094
12117
12129
12135
12139
12150
12141
12163
12176
12187
12188
12160
12141
12132
12130
12136
12142
12138
12135
12134
12137
12143
12164
12161
12153
12154
12157
12146
12144
12151
12154
12154
12162
12150
12117
12102
12106
12102
12071
12065
12062
12048
12034
12036
12037
12040
12052
12071
12100
12151
12166
12176
12180
12178
12187
12192
12186
12183
12172
12169
12161
12147
12129
12115
12113
12139
12144
12144
12131
12110
12102
12107
12124
12139
12133
12136
12140
12125
12106
12088
12059
12024
12013
12036
12073
12110
12135
12103
12092
12077
12057
12061
12112
12143
12153
12149
12136
12112
12099
12130
12149
12158
12165
12194
12212
12213
12204
12188
12172
12175
12177
12180
12173
12170
12141
12119
12106
12082
12061
12028
12018
12028
12034
12029
12036
12098
12130
12173
12208
12215
12199
12202
12203
12167
12145
12120
12118
12128
12129
12129
12131
12114
12096
12085
12062
12053
12032
12037
12043
12039
12043
12063
12138
12160
12173
12173
12171
12167
12171
12171
12171
12162
12158
12133
12127
12125
12117
12117
12124
12140
12154
12177
12197
12217
12220
12198
12177
12145
12103
12107
12129
12151
12170
12184
12140
12089
12052
12024
12009
11999
12029
12060
12090
12092
12097
12130
12144
12150
12142
12136
12131
12130
12129
12114
12118
12124
12091
12076
12074
12075
12077
12092
12105
12133
12162
12181
12179
12169
12161
12144
12130
12130
12150
12146
12141
12135
12120
12120
12122
12122
12119
12115
12120
12133
12128
12128
12124
12124
12117
12114
12114
12116
12121
12120
12105
12119
12136
12155
12168
12166
12151
12141
12129
12125
12115
12093
12095
12106
12105
12100
12083
12075
12073
12076
12101
12121
12108
12107
12111
12117
12129
12136
12159
12182
12204
12204
12195
12183
12174
12158
12147
12129
12108
12107
12106
12109
12115
12132
12140
12141
12142
12135
12083
12063
12052
12058
12073
12088
12096
12092
12091
12092
12110
12160
12187
12194
12164
12143
12138
12070
12040
12048
12070
12085
12100
12105
12097
12098
12114
12125
12137
12143
12154
12167
12175
12146
12134
12144
12154
12168
12163
12147
12114
12091
12089
12102
12118
12122
12131
12125
12111
12109
12114
12122
12126
12125
12120
12139
12152
12167
12179
12176
12164
12142
12126
12127
12139
12136
12121
12103
12096
12104
12121
12094
12062
12052
12070
12098
12134
12142
12147
12155
12158
12159
12141
12122
12090
12071
12071
12108
12110
12093
12090
12125
12173
12222
12227
12235
12243
12217
12125
12095
12097
12108
12131
12124
12107
12101
12112
12124
12131
12037
11992
11980
11980
11984
11922
11899
11926
11999
12066
12120
12211
12247
12284
12302
12335
12285
12243
12216
12190
12139
12085
12069
12055
12056
12078
12110
12185
12188
12183
12206
12226
12221
12182
12127
12085
12027
11956
11895
11899
11942
12007
12055
12113
12131
12137
12131
12120
12145
12158
12171
12172
12168
12171
12170
12168
12182
12180
12183
12198
12199
12196
12184
12167
12148
12125
12112
12110
12125
12152
12204
12204
12210
12198
12174
12150
12150
12133
12116
12078
12012
11953
11956
11967
11965
11969
12054
12120
12173
12201
12205
12216
12210
12184
12172
12171
12179
12215
12228
12228
12214
12200
12179
12157
12158
12145
12136
12129
12133
12138
12136
12106
12080
12049
12020
12011
12031
12051
12071
12053
12025
11992
11941
11895
11915
11969
12033
12071
12105
12153
12238
12271
12287
12302
12332
12372
12356
12340
12322
12286
12238
12070
12008
11954
11935
11981
12038
12083
12096
12082
12070
12033
11995
11958
11921
11931
12000
12197
12259
12297
12291
12257
12200
12168
12115
12071
12027
11997
12040
12095
12132
12157
12172
12189
12191
12205
12216
12208
12199
12210
12218
12235
12250
12289
12261
12204
12151
12115
12069
11982
11962
11942
11941
11973
12025
12158
12193
12191
12191
12198
12171
12144
12119
12072
12041
12085
12130
12172
12202
12184
12149
12075
12035
11973
11950
11955
11991
12002
12023
12024
12004
12004
12039
12088
12171
12229
12264
12352
12380
12389
12371
12333
12298
12164
12056
11977
11989
12044
12122
12120
12128
12150
12178
12220
12240
12258
12247
12221
12173
12041
11972
11953
11968
11977
11986
12004
12020
12033
12050
12068
12084
12121
12180
12237
12277
12263
12215
12167
12148
12132
12150
12173
12159
12132
12119
12126
12113
12089
12083
12067
12055
12083
12110
12128
12163
12194
12218
12219
12223
12208
12192
12206
12157
12123
12088
12059
12063
12056
11887
11785
11720
11644
11594
11600
11609
11665
11756
11901
12193
12356
12521
12688
12842
12978
13033
12969
12900
12794
12655
12347
12234
12150
12097
12042
11996
11877
11812
11752
11698
11657
11624
11709
11789
11813
11854
11909
11885
11897
11950
11986
12003
12115
12196
12260
12324
12380
12497
12537
12573
12588
12582
12557
12462
12384
12308
12225
12113
11941
11863
11799
11833
11905
11937
11899
11891
11881
11905
11973
12101
12124
12163
12213
12242
12220
12166
12104
12049
12008
11966
11936
11968
12001
12025
12057
12161
12201
12222
12235
12251
12253
12217
12184
12159
12150
12148
12085
12057
12036
12041
12091
12177
12191
12231
12272
12307
12324
12245
12185
12123
12071
12033
12004
12001
12006
12020
12032
12050
12105
12134
12165
12176
12145
12114
12118
12117
12095
12083
12124
12134
12109
12052
11986
11914
11923
11983
12038
12057
12070
12160
12208
12231
12226
12218
12209
12192
12219
12253
12283
12286
12270
12263
12266
12249
12217
12182
12095
12064
12038
11992
11945
11883
11909
11944
11953
11970
12010
12001
11988
11968
11937
11904
11885
11878
11879
11881
11901
11960
11996
12016
12012
12010
12073
12402
12606
12779
12889
12964
13014
13012
12991
12933
12826
12559
12429
12327
12255
12203
12153
12014
11924
11904
11952
12014
12060
11978
11828
11658
11596
11587
11555
11531
11479
11459
11504
11727
11817
11943
12113
12262
12384
12415
12446
12531
12638
12695
12627
12569
12515
12468
12385
12195
12106
11988
11866
11830
11860
11890
11882
11879
11877
11891
11909
11882
11871
11877
11895
11927
12007
12043
12093
12119
12095
11952
11911
11889
11880
11899
12004
12143
12258
12268
12221
12208
12179
12217
12358
12484
12531
12356
12230
12091
11938
11842
11821
11768
11677
11600
11545
11563
11881
12019
12085
12106
12103
12130
12218
12337
12422
12471
12512
12613
12673
12806
12926
13057
12969
12671
12257
11901
11658
11507
11470
11595
11721
11789
11839
11945
11963
11965
12005
12133
12319
12600
12702
12767
12794
12803
12721
12733
12779
12773
12707
12476
12410
12352
12269
12202
12171
11973
11826
11664
11567
11568
11729
11760
11792
11872
11862
11700
11286
11234
11238
11164
10929
10878
11094
11343
11584
11781
12139
12275
12390
12529
12693
12874
13107
13185
13268
13362
13387
13311
13131
12928
12765
12637
12533
12237
12093
12113
12251
12369
12268
11995
11551
11141
10853
10659
10521
10554
10591
10699
10889
11533
11890
12228
12501
12675
13034
13189
13339
13458
13526
13515
13431
13347
13180
12913
12626
12478
12425
12354
12314
12209
12031
11664
11510
11384
11347
11387
11552
11657
11713
11678
11595
11582
11640
11678
11698
11709
11735
11786
11805
11863
11926
11979
12151
12153
12140
12226
12323
12301
12033
11907
11781
11677
11625
11761
11830
11898
11964
12023
12011
12123
12277
12424
12541
12627
12878
12902
12812
12641
12351
11927
11739
11629
11656
11704
11748
11696
11613
11595
11660
11761
11885
12014
12256
12578
12877
13058
13112
12976
12853
12856
12822
12745
12780
12794
12728
12605
12173
12034
11958
11916
11939
11988
12198
12179
12139
12024
11792
11647
11631
11591
11584
11611
11585
11634
11734
11825
11918
12017
12161
12185
12229
12318
12421
12588
12720
12909
13046
13037
12963
12946
12905
12745
12511
12266
11647
11355
11156
11063
11011
11026
11292
11403
11455
11472
11423
11161
11236
11278
11283
11356
11564
11936
12150
12442
12762
12904
12824
12832
12827
12689
12598
12485
12391
12371
12393
12383
12381
12546
12657
12855
13059
13223
13321
13316
13261
13152
13030
12906
12547
12404
12270
12076
11862
11462
11360
11283
11261
11299
11341
11302
11281
11323
11456
11588
11643
11668
11704
11711
11735
11780
11850
11919
11941
11916
11861
11581
11352
11249
11240
11338
11494
11517
11599
11719
11799
11930
12084
12252
12448
12684
12887
12964
12941
12884
12853
12904
12730
12631
12647
12754
12859
12896
12708
12543
12461
12397
12324
12076
11890
11822
11904
11977
12027
12106
12112
12081
12113
12216
12405
12451
12471
12365
11947
11142
11172
11331
11452
11499
11563
11784
12017
12221
12266
12180
12409
12667
12666
12548
12471
12428
12263
12188
12213
12321
12410
12470
12618
12785
12869
12884
12842
12842
12787
12518
12223
12110
11807
11691
11953
12360
12611
12404
12092
11794
11547
11314
11030
10392
10434
10654
10904
11105
10936
10839
10918
11141
11469
11797
12298
12420
12558
12753
13040
13477
13621
13693
13593
13403
13181
13037
12845
12719
12679
12704
12418
12126
11825
11503
11215
10916
10736
10628
10560
10549
10588
10967
11304
11582
11786
11985
12353
12555
12748
12836
12898
12980
12938
12838
12725
12709
12810
13095
13179
13219
13144
12980
12568
12281
11856
11298
10980
11002
11435
11651
11831
11926
11939
11848
11702
11543
11492
11582
12047
12261
12415
12564
12677
12790
12890
12965
13096
13189
13149
12922
12733
12486
12223
11994
11864
11554
11431
11398
11372
11304
11291
11356
11526
11751
11875
11913
11871
11854
11851
11798
11712
11788
11767
11739
11746
11910
12403
12590
12736
12804
12857
12901
12724
12607
12485
12470
12567
12781
12830
12850
12776
12658
12439
11810
11530
11221
10923
10920
11485
11728
11883
12005
12100
12239
12246
12281
12299
12236
12161
12114
12151
12206
12223
12211
12136
12102
12032
11941
11873
11856
11825
11838
11879
11949
11996
12020
12052
12025
11808
11533
11474
11846
12039
12229
12344
12411
12560
12643
12690
12683
12658
12788
12744
12662
12619
12561
12508
12413
12371
12333
12277
12197
12169
12195
12193
12155
12094
12029
11907
11790
11719
11700
11697
11786
11812
11806
11798
11797
11883
11916
11920
11957
11987
12021
12006
12021
12050
12065
12056
12086
12102
12133
12151
12158
12161
12150
12142
12147
12152
12168
12181
12170
12155
12163
12201
12206
12148
12105
12055
12028
12057
12194
12201
12157
12094
12022
11881
11912
12029
12163
12208
12163
12022
12010
12072
12137
12195
12240
12226
12221
12239
12290
12357
12466
12486
12478
12409
12278
12013
11927
11866
11833
11846
11974
12037
12075
12091
12119
12158
12216
12227
12241
12265
12264
12235
12231
12239
12250
12257
12255
12223
12203
12149
12105
12114
12098
12051
12016
12008
12016
12022
12023
12016
12014
12021
12020
12036
12034
12046
12054
12049
12088
12100
12103
12118
12134
12136
12160
12180
12188
12195
12191
12229
12241
12246
12214
12156
12125
12116
12109
12104
12086
12072
12056
12059
12059
12056
12050
12085
12090
12094
12113
12118
12125
12136
12145
12148
12146
12139
12162
12179
12177
12174
12172
12177
12195
12191
12190
12178
12160
12121
12109
12085
12062
12053
12057
12068
12074
12070
12061
12069
12111
12144
12163
12162
12151
12116
12115
12115
12117
12112
12113
12104
12106
12096
12085
12088
12097
12115
12124
12137
12147
12155
12146
12142
12145
12149
12155
12141
12116
12111
12102
12099
12110
12118
12120
12118
12118
12123
12151
12159
12161
12163
12156
12129
12119
12115
12114
12108
12107
12109
12098
12080
12079
12092
12133
12151
12162
12159
12159
12130
12120
12126
12132
12135
12132
12103
12105
12119
12109
12106
12109
12116
12116
12112
12096
12080
12072
12078
12080
12086
12103
12145
12166
12183
12196
12209
12220
12205
12200
12187
12166
12149
12072
12062
12058
12061
12053
12036
12026
12033
12052
12078
12106
12140
12147
12165
12170
12188
12193
12196
12195
12201
12197
12180
12077
12007
11997
11982
11985
11989
12002
12028
12056
12070
12166
12205
12240
12266
12293
12309
12310
12281
12248
12186
12114
12027
11977
11959
11985
12020
12047
12093
12097
12088
12087
12063
12053
12089
12133
12175
12224
12283
12320
12343
12350
12352
12336
12251
12235
12244
12234
12219
12216
12238
12239
12253
12265
12258
12151
12058
11982
11939
11886
11852
11869
11903
11932
11960
11983
12043
12066
12073
12069
12057
12035
12046
12049
12040
12005
11963
11975
11985
12003
12015
12031
12076
12089
12092
12084
12097
12193
12201
12216
12222
12233
12230
12219
12206
12170
12113
12057
11945
11926
11938
11981
12037
12233
12309
12372
12407
12440
12453
12474
12507
12527
12529
12494
12318
12216
12105
12024
11947
11887
11802
11785
11779
11776
11769
11783
11721
11643
11600
11585
11634
11695
11777
11859
11940
12039
12262
12330
12412
12541
12669
12937
13047
13048
13050
13041
13019
12871
12779
12710
12643
12541
12305
12210
12075
11924
11805
11687
11555
11558
11568
11587
11590
11574
11573
11598
11635
11677
11762
11828
11878
11932
11961
11973
12035
12073
12123
12156
12181
12197
12177
12171
12170
12180
12194
12221
12202
12202
12234
12285
12332
12321
12290
12256
12243
12130
12054
12016
11987
11990
12014
12092
12113
12108
12104
12115
12224
12321
12408
12441
12457
12457
12390
12315
12217
12100
11987
11683
11465
11315
11266
11306
11444
11856
12042
12222
12386
12505
12562
12501
12435
12403
12384
12435
12493
12570
12653
12693
12656
12537
12416
12306
12208
12055
11822
11759
11733
11758
11806
11869
12011
12055
12109
12159
12187
12211
12205
12189
12172
12149
12073
12037
12004
11981
11977
11972
11999
11999
12008
12011
12007
12028
12037
12052
12077
12077
12067
12094
12107
12122
12141
12148
12127
12101
12065
12028
12013
12011
12078
12121
12164
12184
12203
12243
12255
12210
12148
12109
12119
12139
12115
12076
12036
12012
11988
12018
12072
12129
12158
12282
12386
12457
12499
12493
12456
12320
12215
12140
12070
12022
11991
11933
11903
11937
11986
12042
12085
12115
12120
12108
12072
12034
12034
12040
12044
12047
12087
12107
12133
12129
12128
12140
12177
12165
12159
12167
12176
12157
12140
12122
12083
12055
12082
12094
12089
12096
12121
12143
12137
12127
12132
12138
12152
12161
12166
12175
12184
12160
12124
12093
12095
12100
12101
12113
12153
12152
12143
12132
12121
12119
12132
12139
12147
12153
12153
12159
12152
12160
12143
12140
12130
12130
12123
12130
12122
12138
12177
12205
12220
12203
12183
12134
12117
12106
12098
12093
12083
12071
12089
12114
12143
12158
12160
12157
12169
12183
12186
12147
12121
12116
12115
12108
12102
12082
12070
12023
11969
11926
11924
11943
11954
11959
11987
12037
12106
12117
12124
12131
12145
12230
12267
12279
12242
12193
12187
12209
12216
12214
12215
12216
12234
12228
12174
12104
12076
12132
12153
12157
12185
12196
12199
12218
12185
12124
12063
12036
12013
12026
12036
12008
11995
12022
12015
12004
12029
12071
12095
12042
11997
11997
12014
12033
12106
12118
12110
12115
12136
12160
12168
12172
12177
12170
12171
12188
12196
12197
12197
12193
12182
12182
12171
12167
12152
12151
12159
12171
12170
12153
12146
12145
12137
12123
12106
12095
12084
12102
12112
12128
12122
12107
12097
12091
12073
12049
12029
12030
12105
12156
12185
12201
12208
12190
12161
12154
12152
12146
12142
12123
12136
12168
12205
12225
12246
12250
12248
12216
12177
12125
12122
12115
12092
12063
12033
12023
12006
11977
11916
11848
11838
11862
11897
11924
11968
12047
12159
12191
12203
12216
12231
12246
12220
12193
12167
12141
12161
12183
12183
12184
12190
12196
12178
12169
12170
12176
12200
12169
12166
12166
12151
12134
12123
12098
12092
12078
12063
12055
12057
12070
12094
12120
12144
12161
12182
12163
12143
12135
12124
12134
12129
12124
12108
12108
12109
12106
12107
12122
12131
12141
12147
12141
12142
12153
12181
12219
12230
12253
12289
12324
12325
12260
12228
12210
12180
12145
12069
12024
12001
11976
11936
11862
11846
11864
11869
11855
11889
11933
11928
11925
11931
11967
12092
12150
12197
12230
12246
12254
12258
12250
12243
12224
12212
12214
12214
12195
12177
12156
12146
12146
12159
12180
12186
12183
12185
12190
12195
12201
12186
12144
12116
12084
12061
12054
12048
12039
12033
12039
12034
12031
12063
12103
12123
12141
12141
12150
12147
12159
12160
12159
12168
12192
12191
12185
12172
12157
12174
12190
12192
12200
12208
12181
12153
12141
12137
12126
12096
12024
12023
12023
12008
12001
12014
12015
12027
12047
12069
12076
12071
12071
12076
12078
12089
12095
12103
12111
12114
12129
12157
12153
12149
12153
12146
12149
12188
12207
12219
12217
12221
12238
12236
12215
12187
12131
12092
12049
12000
11952
11928
11929
11952
12051
12084
12094
12103
12121
12166
12192
12206
12215
12197
12190
12197
12202
12197
12195
12196
12210
12200
12176
12148
12123
12127
12119
12117
12100
12078
12071
12107
12130
12156
12186
12209
12232
12198
12180
12178
12182
12174
12142
12116
12094
12079
12065
12026
12000
11979
11960
11918
11892
11871
11846
11857
11904
11952
12043
12121
12168
12186
12211
12256
12282
12290
12281
12258
12262
12249
12247
12247
12234
12216
12191
12182
12173
12151
12124
12089
12079
12055
12036
12038
12054
12081
12090
12113
12137
12145
12171
12170
12161
12150
12150
12143
12111
12107
12131
12152
12171
12184
12187
12195
12197
12199
12149
12111
12090
12080
12051
12014
11973
11966
11941
11922
11917
11998
12054
12095
12121
12141
12150
12156
12156
12159
12158
12166
12204
12217
12231
12222
12205
12198
12170
12145
12115
12093
12090
12140
12146
12155
12158
12146
12088
12062
12037
12036
12051
12073
12105
12092
12082
12079
12111
12140
12138
12140
12138
12145
12148
12164
12174
12181
12188
12187
12192
12176
12175
12164
12151
12111
12103
12086
12065
12058
12062
12095
12099
12080
12072
12084
12127
12121
12111
12121
12118
12125
12136
12142
12151
12158
12148
12126
12162
12200
12190
12177
12153
12146
12142
12151
12134
12107
12072
12045
12054
12045
12048
12103
12111
12105
12071
12021
12011
12026
12007
12017
12037
12078
12100
12100
12107
12142
12178
12228
12260
12285
12290
12289
12275
12224
12191
12166
12151
12141
12101
12066
12044
12029
12024
12044
12057
12052
12055
12038
12004
11991
12018
12047
12076
12098
12112
12148
12180
12215
12234
12247
12225
12209
12210
12197
12169
12122
12109
12116
12130
12144
12134
12096
12096
12119
12102
12069
12002
11997
12012
12035
12056
12104
12184
12223
12259
12254
12239
12309
12318
12278
12224
12186
12151
12141
12151
12176
12177
12159
12104
12073
12062
12046
12028
12016
12007
12004
12000
11966
11947
12014
12061
12087
12096
12096
12088
12101
12132
12162
12141
12087
12043
12072
12113
12127
12126
12157
12169
12190
12200
12197
12157
12145
12106
12055
12059
12124
12254
12299
12319
12310
12252
12101
12068
12058
12050
12033
12007
11983
12000
12022
12057
12093
12165
12187
12190
12191
12193
12157
12081
12032
12027
12037
12022
11997
12025
12083
12163
12252
12315
12326
12337
12335
12324
12309
12272
12217
12143
12083
12024
12014
12038
12058
12059
12060
12053
11997
12037
12082
12093
12094
12124
12094
12070
12052
11999
11935
12000
12091
12173
12220
12241
12263
12272
12261
12228
12181
12110
12066
12042
12041
12040
12036
12048
12128
12193
12216
12245
12284
12265
12246
12195
12156
12067
12054
12072
12084
12082
12096
12063
12039
12010
11981
11961
12005
12003
11983
11977
11991
12050
12219
12278
12309
12304
12284
12255
12217
12163
12109
12065
11964
11974
12024
12051
12061
12083
12118
12135
12170
12168
12135
12054
12031
12047
12104
12183
12247
12323
12349
12371
12400
12409
12314
12237
12175
12137
12118
12078
11989
11971
11936
11906
11904
11944
11953
11960
11972
11994
12001
11987
11970
11952
11937
11958
12045
12086
12153
12277
12408
12465
12389
12312
12292
12297
12310
12279
12252
12230
12199
12140
12027
11972
11960
11968
12003
12150
12189
12235
12292
12318
12288
12164
12104
12057
12001
11983
11986
11976
11974
11973
11960
11934
11874
11887
11938
12010
12077
12159
12167
12173
12189
12213
12237
12302
12358
12409
12444
12443
12397
12337
12254
12154
12057
11952
11924
11888
11872
11879
11898
11924
11953
12027
12075
12086
12020
11960
11924
11890
11840
11829
11930
12018
12108
12198
12314
12539
12597
12636
12656
12632
12442
12361
12304
12239
12225
12246
12177
12095
12021
11943
11872
11806
11794
11783
11814
11861
11932
12095
12097
12097
12118
12149
12201
12207
12179
12164
12149
12156
12175
12220
12248
12274
12282
12251
12187
12121
12064
11977
11645
11520
11482
11509
11581
11670
11845
11917
11929
11933
11972
12166
12295
12425
12569
12700
12780
12871
12881
12848
12820
12780
12610
12454
12329
12201
12077
12045
12035
12019
12001
11918
11824
11665
11629
11586
11617
11701
11914
11984
12032
12036
12030
12020
11938
11950
12015
12111
12205
12411
0
12096
11922
11884
11901
11946
12004
12062
12100
12114
12130
12123
12109
12116
12189
12259
12307
12333
12340
12385
12368
12319
12283
12284
12270
12248
12193
12092
12002
11920
11949
11974
12028
12029
11927
11764
11814
11903
11954
11964
11871
11829
11843
11869
11918
12070
12358
12412
12437
12466
12511
12572
12599
12595
12565
12536
12517
12484
12417
12314
12205
12157
12127
12026
11942
11841
11676
11534
11573
11635
11696
11769
11890
12149
12193
12206
12204
12211
12082
12026
12033
12071
12117
12184
12284
12278
12288
12287
12251
12027
11868
11788
11819
11886
11996
12023
12010
11985
11966
11930
11843
11868
11955
12050
12141
12232
12252
12289
12348
12416
12481
12577
12574
12574
12534
12469
12393
12346
12293
12272
12245
12232
12274
12262
12149
11934
11623
11171
11122
11127
11176
11264
11650
11889
12116
12342
12563
12767
12992
13024
13045
13020
13009
12994
12886
12649
12233
11778
11507
11367
11372
11377
11399
11430
11585
11643
11795
11975
12163
12482
12582
12657
12704
12733
12746
12868
12962
13002
12970
12864
12400
12218
12148
12091
11980
11887
11718
11644
11512
11290
11150
11062
11051
11087
11171
11241
11286
11328
11285
11221
11282
11483
11942
12104
12290
12527
12737
13028
13127
13187
13275
13404
13519
13654
13717
13758
13748
13688
13472
13277
13040
12713
12402
12208
11858
11623
11362
11146
11064
11096
11118
11163
11252
11333
11436
11469
11449
11376
11235
11105
11022
11133
11307
11479
11643
11892
11937
11954
11966
12006
12079
12285
12312
12341
12411
12520
12749
12888
12999
13086
13173
13191
13115
12989
12764
12487
12255
11922
11841
11774
11699
11652
11709
11688
11709
11775
11844
11964
12237
12302
12354
12412
12438
12393
12332
12284
12232
12176
12130
12056
11986
11860
11771
11749
11718
11657
11656
11654
11650
11701
11734
11836
12031
12245
12435
12620
12661
12683
12739
12805
12799
12724
12659
12559
12430
12208
11653
11419
11246
11101
10972
10909
11081
11272
11359
11384
11644
11803
11995
12164
12321
12509
12898
12991
12994
12953
12901
12962
13049
13121
13141
13104
12971
12519
12212
11934
11720
11598
11560
11624
11612
11566
11515
11655
11801
11942
12063
12245
12446
12748
12832
12907
12944
12920
12697
12681
12707
12738
12716
12624
12143
11818
11423
11109
10951
10950
11007
11070
11212
11412
11595
11853
12014
12196
12384
12537
12655
12689
12732
12738
12678
12486
12340
12196
12112
12082
12114
12050
11958
11933
11921
11913
11938
11935
11933
11930
11946
11996
12132
12181
12164
12108
12035
11893
11795
11618
11454
11349
11451
11587
11680
11761
11823
11859
12174
12320
12408
12464
12489
12517
12522
12551
12567
12586
12634
12718
12732
12761
12757
12710
12541
12423
12266
12105
11947
11775
11574
11605
11640
11642
11661
11709
11763
11858
11941
11988
12228
12357
12484
12572
12594
12620
12803
12881
12930
12935
12879
12766
12736
12552
12051
11401
10914
10523
10575
10714
10860
10975
11264
11492
11734
11929
12120
12466
12587
12695
12829
12952
13096
13183
13225
13308
13324
13244
12949
12848
12716
12541
12303
11992
11499
11316
11170
11204
11355
11641
11692
11697
11673
11623
11697
11845
12001
12130
12112
12014
12044
12083
12146
12179
12233
12321
12301
12255
12249
12279
12299
12353
12323
12298
12313
12374
12451
12447
12355
12184
12014
11824
11517
11497
11615
11793
11908
11989
11970
11843
11706
11638
11683
11754
11832
11915
12008
12087
12248
12332
12398
12434
12472
12525
12535
12545
12532
12529
12573
12695
12760
12744
12681
12593
12255
12024
11827
11657
11542
11606
11648
11745
11916
12123
12214
12188
12205
12192
12098
11904
11712
11690
11658
11641
11712
11831
12129
12217
12238
12250
12219
12018
12036
12110
12209
12329
12487
12637
12646
12667
12631
12538
12443
12345
12178
12020
11879
11875
11977
12107
12191
12204
12195
11960
11946
12034
12105
12132
12049
11983
11947
11918
11880
11804
11693
11715
11740
11757
11812
11962
11898
11911
12001
12117
12320
12379
12427
12459
12433
12397
12440
12468
12506
12518
12482
12280
12257
12326
12409
12477
12503
12475
12448
12404
12368
12306
12100
11995
11898
11841
11800
11714
11711
11723
11704
11634
11445
11203
11166
11190
11376
11702
12170
12214
12289
12390
12495
12547
12660
12563
12460
12432
12381
12272
12095
11975
11870
11698
11639
11568
11583
11616
11675
11713
11841
11832
11755
11744
11833
12340
12697
13053
13383
13607
13765
13848
13776
13649
13436
13150
12668
12428
12224
12045
11858
11636
11552
11665
11721
11701
11707
11735
11736
11802
11871
11910
12006
12048
12087
12175
12243
12256
12121
12019
11915
11768
11560
11188
11043
10996
10988
10998
11110
11404
11568
11787
12084
12406
12807
12731
12593
12449
12276
12123
12020
12065
12133
12167
12166
12071
11906
11744
11791
11964
12371
12648
12853
12935
12882
12739
12522
12432
12370
12442
12570
12715
12756
12720
12677
12677
12646
12192
12031
11940
11838
11675
11517
11556
11612
11704
11825
12021
12136
12307
12462
12519
12501
12256
12005
11807
11638
11521
11591
11692
11743
11762
11784
11838
12015
12139
12224
12301
12417
12522
12448
12310
12202
12167
11929
11723
11584
11491
11428
11495
11840
11956
12059
12190
12325
12594
12742
12868
12956
12978
12866
12292
11994
11753
11580
11498
11641
11792
11953
12029
12029
12002
12008
12108
12244
12344
12406
12511
12565
12552
12453
12295
11968
11919
11907
11867
11841
11905
12183
12215
12248
12312
12384
12458
12455
12373
12213
12068
12041
12177
12216
12265
12309
12277
12189
12216
12243
12219
12219
12158
12066
11959
11783
11692
11749
11801
11783
11775
11786
11872
12020
12000
11986
11976
11998
11997
11846
11898
12002
12073
12155
12359
12427
12415
12382
12350
12340
12373
12328
12279
12245
12271
12252
12269
12268
12260
12271
12149
12073
12035
12019
12045
12048
12048
12061
12035
12050
12048
12073
12197
12250
12248
12222
12208
12187
12123
12080
12031
11922
11790
11799
11854
11908
11920
11897
11903
11940
12007
12069
12141
12215
12255
12274
12202
12107
12046
11983
11945
11958
11990
12028
12256
12362
12427
12429
12354
12274
12258
12237
12192
12200
12217
12254
12306
12415
12599
12694
12715
12656
12522
12381
12215
12150
12085
11971
11873
11819
11812
11718
11697
11667
11690
11719
11855
11959
12073
12165
12242
12261
12133
12161
12243
12268
12216
12028
11968
11929
11918
11787
11623
11590
11508
11414
11410
11487
11919
12197
12390
12428
12419
12413
12439
12485
12477
12490
12562
12940
13047
12975
12770
12611
12555
12527
12444
12318
12138
11776
11556
11356
11263
11201
11221
11444
11566
11738
11906
12089
12369
12400
12306
12171
12101
12088
12100
12175
12170
12131
12095
12091
12122
12160
12220
12369
12539
12648
12669
12707
12728
12680
12464
12367
12179
12049
12049
12063
12052
12081
12095
12026
11907
11643
11567
11583
11579
11553
11648
11669
11631
11579
11631
11739
11972
12028
12122
12236
12408
12783
12925
13088
13179
13218
13284
13201
13072
12976
12803
12521
12020
11901
11812
11815
11802
11608
11335
11096
10935
10798
10854
11194
11281
11358
11458
11582
11818
11876
12014
12171
12270
12370
12649
12732
12718
12686
12655
12435
12324
12268
12294
12329
12257
12290
12355
12379
12395
12337
12255
12274
12269
12286
12303
12250
12197
12144
12131
12174
12259
12488
12558
12559
12555
12547
12474
12522
12544
12468
12398
12325
12276
12200
12133
12035
11887
11500
11302
11163
11043
10940
10902
10950
11005
11110
11324
11532
11809
11989
12148
12259
12450
12818
12832
12847
12843
12784
12606
12534
12389
12154
11944
11780
11603
11641
11771
11855
11903
12095
12241
12349
12434
12538
12618
12500
12341
12236
12147
12092
12088
12125
12148
12225
12457
12725
12808
12772
12660
12571
12528
12542
12506
12381
12170
11889
11518
11405
11291
11238
11234
11293
11379
11161
10918
10818
10894
11522
11834
12136
12434
12534
12570
12883
12933
12901
12841
12814
12729
12691
12647
12636
12639
12606
12508
12394
12246
12131
12028
12002
12077
12185
12230
12157
12022
11995
11951
11914
11876
11867
11894
11878
11856
11835
11884
12128
12186
12175
12136
12136
12211
12248
12275
12279
12288
12333
12442
12444
12341
12152
11971
11627
11581
11567
11553
11533
11507
11551
11749
11965
12154
12320
12538
12728
12964
13154
13273
13346
13235
13195
13031
12718
12369
11683
11356
11135
11004
10799
10238
10000
9946
10165
10488
10826
11179
11997
12254
12508
12723
12851
12901
12940
13146
13376
13539
13628
13617
13541
13435
13254
12980
12403
12188
12018
11877
11771
11465
11284
11088
10958
10940
11017
11190
11190
11273
11388
11609
11972
12034
12171
12346
12513
12647
12769
12962
13209
13406
13499
13596
13466
13200
12924
12750
12380
12121
11862
11636
11332
10983
10547
10515
10541
10620
10686
11109
11436
11674
11954
12420
13028
14118
14204
14050
13916
13860
13459
13106
12831
12553
12152
11700
11062
11002
10961
10851
10694
10377
10328
10366
10410
10554
11160
11514
11849
12105
12178
12106
12319
12755
13398
14036
14428
14393
14340
14218
14088
13967
13905
13796
13509
13013
12420
11793
10725
10327
9945
9440
8968
8623
8523
8619
8886
9159
9485
9774
10057
10511
10938
11633
11856
12153
12478
12877
13927
14354
14648
14799
14799
14764
14724
14735
14765
14654
14396
13849
13586
13308
13067
12769
12226
12143
12119
11897
11539
11006
10368
10493
10643
10430
9939
9395
9129
9279
9557
9941
10618
12023
12601
13222
13697
13837
13964
14349
14863
15236
15357
14991
14635
14013
13007
11802
10839
10109
10458
11492
12564
13023
13027
13185
13201
12933
12785
12535
11519
10903
10237
9538
9207
9044
8718
8120
7435
7129
7568
8690
9830
10966
13211
14248
15383
16374
16443
16201
15602
15299
15032
14602
14162
12631
11623
10310
9057
8210
7489
6608
5550
4584
4200
5002
6774
8546
9496
10050
10615
11220
11145
10678
10232
10410
11845
12472
13292
14271
15096
16000
16375
17001
17868
18733
19479
19655
19318
18845
18219
17411
15725
15136
14472
13573
12533
11356
8961
8193
7739
7598
7733
8029
8372
8782
8955
8819
8597
8478
8535
8575
8616
8884
9286
9990
10977
11954
12750
13387
14128
14471
14988
15483
15897
16815
16882
17001
17528
18117
17730
16754
15540
14144
12614
11126
8965
8191
7596
6873
6138
5642
5510
5756
6034
6465
7246
8366
9362
9985
10602
11413
12069
12389
12336
12131
11932
11979
12350
13377
13514
13405
13528
14045
14775
16204
16746
17071
17229
17535
18564
18689
18446
17968
17114
15758
12584
11115
9515
8215
7193
5972
4640
3296
2344
1938
1729
1673
1963
2907
5075
8164
10988
12936
14748
15197
15599
15890
16076
16151
16038
15966
16095
16299
16532
16469
16215
15895
15414
14946
14046
13333
13022
13015
12780
12246
11401
11351
11582
11856
11906
10557
9053
7709
7007
7089
7661
8520
9694
10774
11482
11804
12541
14698
15057
14956
14607
14210
13126
12138
11207
10998
11409
11497
9075
8121
7934
8326
8878
8924
8812
9623
11687
13964
15406
16107
16131
15937
15819
15376
14420
13368
11683
11044
10593
10251
10147
10572
10827
11523
12449
12718
12068
10004
9620
10090
11158
12469
13679
14224
13359
12411
11870
11602
11810
13017
14320
15310
16077
16527
16119
15600
15106
14612
13950
12127
10940
9531
7859
6628
6106
6076
6189
6398
7633
9663
11178
11422
10956
10699
11029
11879
12526
12775
14157
14641
14913
15125
15362
15649
15352
14785
14441
14102
13525
12278
13481
15726
17088
17102
16209
13174
12215
11980
11891
10975
6722
4067
1486
64
64
674
3192
6097
8271
9456
10240
11300
12751
14459
17782
18831
19459
20030
19962
18331
17133
15597
13821
12363
11163
10013
9808
9372
8885
8261
7602
7056
6522
5693
4965
5533
7601
10090
12271
14379
18169
18889
18806
18629
18631
18126
17405
16262
14484
12337
10609
9266
8964
9179
9320
9174
9095
8931
8535
8190
8534
9671
11404
12880
13619
13953
13726
13997
14100
13635
12839
12032
11005
10955
11156
11159
10904
11494
11910
12166
12840
13810
14616
15447
14825
13686
12421
10593
6723
6040
6196
7085
8158
9409
11180
13248
14925
16483
17935
19705
20102
19824
18885
17695
14406
12109
9365
6690
4893
3634
3291
4417
6624
9031
10910
12213
12887
14287
14180
13529
12519
11717
13046
14874
16027
16655
17182
17146
16193
15470
14283
12506
10032
6507
5641
4916
4337
3816
3071
2920
4147
6211
8568
10946
12960
14218
14963
15251
16160
17128
18086
18771
19059
17803
17125
16613
16107
15182
13846
10392
8907
7970
7723
8464
9644
10422
10628
10376
9706
8936
8537
11362
13238
15064
16497
16983
16764
16938
16683
15387
13359
10903
5011
3598
4712
7407
9993
11908
13172
13662
13413
13505
14546
14358
13187
11161
8761
6864
5962
6318
7622
9463
11459
15781
17657
18796
19228
18955
18063
14507
13600
13755
13850
13106
10399
8541
7249
7040
7986
8961
9173
9204
9318
9238
8993
9349
10669
11982
12313
12202
14525
15233
14669
14013
13883
15282
15974
16124
15629
14332
10589
9231
8627
8390
8688
9376
10109
10814
12370
14424
18049
18499
18564
18287
17514
15924
10211
6010
2474
217
9
9
818
4525
9105
12800
15141
16621
17629
18051
17848
16336
13795
10817
8112
6404
5921
6523
7847
9738
11593
13280
13437
13387
13359
13278
13228
13860
14115
14022
13641
13614
14862
16121
17542
18211
17957
17415
16228
14765
12834
10244
7404
4559
2432
1759
2192
3894
10354
12632
13671
14140
14372
14433
13293
12083
10982
10136
9771
9743
10350
13629
15713
16910
16799
16036
15198
13611
12645
11483
10540
9818
8935
8474
8867
10493
14870
16465
17849
18437
18075
16373
15311
14291
12895
10873
6353
5487
5642
6153
6844
7797
8523
8460
7773
6652
6110
7008
9127
11442
13500
15273
16429
17023
16582
15955
15475
15161
15315
15985
15481
14346
13331
12650
12277
10746
9932
9154
8823
9268
9999
11129
12572
13746
14616
15377
15128
14698
14234
13580
10602
8674
7136
6257
6257
7270
9737
12924
15362
16581
16625
14828
13496
12112
10668
9570
9018
8927
9281
10095
11537
12197
12976
13464
13254
10973
9784
8907
8488
8766
10043
12058
13392
13936
14625
14922
14974
14912
14889
14543
13628
13348
13111
12956
13105
13281
13168
12750
12356
12003
11805
12000
11904
11106
9888
8576
8042
8560
9318
9905
10419
10985
11668
11624
11706
12093
12468
13442
14079
15107
16230
16899
17950
17595
16374
14786
13192
11592
8157
6661
5363
4467
4368
4831
5622
6787
8627
11207
13775
15590
16765
17317
17344
16895
16505
16758
17148
15872
14813
13928
12940
12127
9111
6483
3612
1517
633
633
1264
3387
6426
9170
11315
13681
14413
15130
15722
16115
16409
16116
15658
15127
14759
14607
14234
14452
14883
14957
14712
14364
13105
12728
12462
11956
11353
9732
9425
9643
10095
10586
10822
10858
10716
11053
11593
12512
13687
14757
15181
13218
11180
8941
7286
6620
7042
8216
9724
11208
12244
12941
14061
14316
14094
13335
12284
10476
10351
10885
11760
13156
16191
17391
17536
17037
16451
16005
14546
12914
10743
8624
7266
7079
7517
8084
8855
9634
10281
11035
12567
12797
12693
12303
12002
12312
12870
13535
14195
14464
13703
12607
11351
10172
9062
7941
7245
7669
9170
11300
15013
16286
17142
17510
17493
17683
18071
16906
15407
13934
12456
9526
8246
6895
5142
3090
2034
2338
3389
4879
6780
9160
11762
13593
14358
14637
14595
13563
13244
13615
14163
14501
15177
16233
17272
17783
17585
16932
15843
15450
14965
13910
12354
8381
6898
6243
6604
7702
8653
9125
9243
9253
9346
9696
10408
11287
12122
12756
13385
13873
14391
14779
14975
14889
14530
14318
13954
13470
12774
11007
10728
10803
11274
11873
12439
13369
13599
13790
14143
14372
13069
11678
10608
10020
9758
9902
10026
9450
9506
9746
10229
10891
11745
12698
13549
14276
15422
16219
16976
16921
16373
14952
13895
12440
10639
8770
7447
6411
5345
4531
4611
5828
7359
8583
9711
10825
12152
12739
13436
14215
15041
15996
15982
16071
16179
16152
14746
13643
12794
12123
11361
10495
10033
10509
10862
10967
10854
11300
11742
12177
12492
12573
12722
13057
13002
12941
13077
13302
13179
12850
12203
11205
10210
9038
9164
9673
10272
10992
11697
12195
12442
12623
12807
12841
12887
12894
12842
12641
12504
12451
12442
12507
12821
12932
12974
13049
13140
13239
13290
13178
13025
12835
12549
11944
11647
11363
11140
11020
11004
10786
10847
11077
11317
11562
12029
12029
11905
11915
12077
12389
12493
12661
12771
12812
12791
12628
12553
12637
12735
12685
12547
12455
12289
12252
12369
12581
12672
12317
11798
11342
11014
10984
11202
11426
11526
11454
11341
11703
12034
12356
12622
12666
12535
12210
11841
11663
11661
11214
10828
10537
10583
10978
11585
12428
12644
12793
12972
13175
13304
13208
13035
12885
12723
12552
12278
12268
12324
12260
12060
11405
11310
11356
11439
11735
12395
12417
12435
12466
12486
12469
12196
11888
11642
11527
11425
11304
11462
11734
11930
12029
12124
12275
12392
12475
12503
12495
12490
12476
12450
12411
12372
12351
12339
12322
12311
12303
12283
12262
12258
12292
12367
12477
12598
12522
12402
12289
12187
12088
11941
11847
11683
11506
11427
11665
11881
12036
12163
12283
12393
12542
12587
12669
12787
12854
12515
12412
12329
12224
12103
11595
11262
10981
10797
10743
10854
11296
11521
11777
12035
12217
12355
12400
12443
12470
12500
12519
12520
12600
12677
12784
12943
13332
13402
13320
13125
12876
12179
11713
11262
10905
10592
10360
10572
10878
11286
11603
11767
12010
11976
12001
12172
12260
12218
12335
12494
12523
12480
12464
12387
12272
12164
12061
11977
11954
12115
12221
12296
12307
12290
12309
12347
12398
12457
12539
12562
12578
12605
12650
12678
12658
12501
12334
12172
12000
11818
11635
11630
11612
11552
11515
11516
11634
11775
11936
12062
12159
12264
12266
12298
12418
12555
12627
12575
12492
12431
12433
12398
12166
11984
11764
11574
11455
11495
11673
11845
11935
11907
11889
12075
12130
12055
11936
11891
11996
12064
12146
12236
12301
12337
12432
12426
12345
12295
12328
12451
12477
12483
12427
12357
12331
12347
12337
12335
12225
12104
12080
12173
12259
12292
12190
12074
12116
12176
12237
12321
12346
12023
11853
11796
11716
11584
11395
11265
11107
11059
11221
11588
11658
11730
11884
12102
12319
12678
12836
12933
12995
13019
12978
12934
12860
12722
12575
12471
12134
11928
11746
11612
11572
11631
11665
11770
11953
12139
12245
12321
12390
12453
12472
12448
12300
12236
12225
12221
12237
12143
12006
11892
11848
11805
11802
11913
12036
12192
12327
12412
12451
12382
12248
12095
11935
11839
11790
11844
11924
12003
12133
12354
12405
12448
12484
12474
12250
12086
11905
11750
11630
11548
11517
11566
11630
11691
11792
11997
12094
12202
12300
12374
12465
12609
12680
12703
12660
12576
12311
12106
11903
11761
11707
11779
11817
11863
11888
11903
11942
12149
12320
12474
12542
12522
12538
12656
12721
12681
12605
12533
12238
11992
11754
11682
11738
11847
11888
11924
11859
11812
11835
12102
12162
12019
11772
11531
11012
10816
10687
10644
10692
11279
11658
12040
12355
12572
12725
12940
13022
13087
13126
13146
13173
13202
13232
13245
13252
13190
13042
12905
12723
12516
12298
11906
11732
11582
11407
11250
11136
11154
11239
11362
11478
11523
11646
11848
12053
12199
12275
12370
12388
12348
12288
12266
12296
12425
12481
12482
12426
12341
12112
12044
12000
11968
11961
11957
12012
12049
12092
12185
12328
12426
12469
12553
12615
12640
12615
12657
12710
12771
12779
12684
12380
12175
11933
11670
11391
11058
10954
10870
10825
10752
10675
10897
11222
11602
11876
12048
12260
12378
12483
12522
12511
12576
12611
12611
12592
12521
12454
12266
12127
12113
12266
12405
12601
12573
12483
12481
12592
12632
12485
12306
12089
11867
11707
11332
11003
10764
10785
10887
11019
11568
11845
12071
12295
12523
12754
12772
12777
12736
12667
12539
12470
12397
12340
12299
12269
12276
12269
12226
12176
12131
12026
11990
11977
12001
12040
12102
12221
12272
12323
12357
12379
12371
12361
12340
12326
12302
12346
12427
12502
12570
12665
12727
12755
12761
12739
12654
12504
12084
11831
11586
11362
11191
11075
10976
11030
11072
11115
11234
11532
11654
11759
11859
11987
12254
12375
12500
12642
12741
12774
12670
12568
12465
12346
12258
12232
12277
12375
12576
12843
12990
13076
13105
13060
12932
12753
12202
11868
11576
11317
11051
10852
10646
10627
10662
10734
10865
11245
11386
11515
11664
11831
12163
12323
12454
12535
12563
12568
12646
12676
12677
12695
12751
12744
12734
12759
12766
12773
12768
12692
12608
12494
12383
12260
11956
11760
11550
11355
11211
11227
11403
11640
11884
12109
12296
12491
12563
12641
12703
12705
12432
12245
12051
11927
11827
11765
11714
11630
11580
11611
11660
11763
11925
12086
12211
12288
12521
12606
12601
12526
12409
12276
11980
11829
11716
11675
11721
11988
12086
12130
12134
12087
12054
12130
12264
12435
12641
12832
13048
13071
13027
12934
12809
12638
12279
12094
11917
11797
11729
11610
11568
11582
11618
11629
11501
11478
11514
11598
11687
11747
11877
11928
11992
12032
12036
12074
12108
12131
12138
12177
12211
12207
12188
12243
12399
12589
12847
12953
12993
12958
12900
12689
12532
12346
12192
12037
11882
11691
11611
11493
11436
11549
11696
11608
11518
11430
11442
11568
11901
12091
12218
12271
12274
12308
12326
12304
12245
12189
12137
12121
12173
12219
12223
12184
12241
12305
12362
12393
12409
12356
12292
12245
12201
12200
12248
12305
12284
12270
12226
12167
12069
12056
12069
12125
12147
12127
12027
11969
11926
11880
11830
11887
11935
11976
12019
12084
12115
12125
12168
12229
12274
12327
12384
12418
12441
12422
12420
12368
12318
12298
12342
12366
12348
12256
12213
12163
12111
12035
11892
11815
11726
11671
11609
11572
11584
11605
11603
11674
11888
12329
12451
12555
12640
12673
12490
12307
12084
11892
11809
11775
11807
11792
11779
11844
11922
11883
11895
11922
11959
12041
12121
12276
12239
12204
12228
12324
12520
12583
12626
12627
12603
12515
12460
12375
12290
12243
12226
12118
12027
11908
11706
11510
11394
11490
11623
11814
11994
12058
11988
11968
12007
12077
12155
12315
12381
12431
12449
12438
12416
12409
12394
12383
12357
12282
12237
12241
12282
12302
12307
12334
12353
12342
12322
12293
12249
12065
11954
11841
11786
11769
11798
11836
11928
12007
11987
11972
12042
12080
12122
12134
12074
11917
11825
11793
11839
11916
11996
12009
12014
12026
12051
12071
12129
12128
12116
12098
12047
12001
12019
12049
12079
12089
12092
12096
12097
12127
12188
12220
12156
12130
12133
12141
12133
12360
12488
12566
12626
12652
12659
12544
12482
12417
12316
12171
11966
11932
11937
11987
12071
12153
12218
12155
12062
12010
11996
11981
11963
11928
11867
11815
11794
11944
12094
12242
12344
12385
12409
12397
12337
12241
12154
12045
11990
11916
11864
11891
12023
12426
12626
12725
12641
12465
12102
11999
11923
11830
11717
11693
11842
11890
11943
11915
11820
11591
11538
11604
11734
11861
12087
12228
12311
12316
12266
12196
12110
12125
12173
12215
12253
12308
12364
12404
12416
12398
12383
12363
12359
12354
12339
12315
12242
12174
12118
12022
11879
11907
11998
12068
12127
12155
12157
12177
12173
12185
12206
12236
12298
12246
12182
12197
12238
12261
12018
11846
11693
11571
11468
11425
11427
11480
11581
11751
12009
12461
12599
12647
12611
12616
12601
12525
12448
12372
12279
12248
12259
12252
12231
12189
12134
12012
11891
11759
11655
11600
11650
11758
11871
11963
12081
12223
12507
12560
12551
12499
12434
12284
12165
12045
11966
11966
12094
12163
12227
12275
12293
12273
12222
12168
12061
11962
11941
12071
12146
12217
12282
12289
12254
12220
12201
12146
12045
12002
11897
11887
11963
12074
12147
12187
12218
12227
12247
12262
12245
12169
12153
12148
12131
12112
12091
12040
11991
11964
11987
12029
12047
12054
12051
12061
12067
11998
11967
11967
11989
12024
12057
11972
11910
11891
11949
12033
12193
12264
12294
12284
12230
12102
12159
12274
12342
12287
12234
12134
12080
12024
11991
11975
12040
12053
12015
11924
11819
11769
11922
12055
12187
12288
12326
12393
12413
12395
12340
12295
12246
12257
12280
12270
12206
12154
12095
12067
12069
12110
12119
12078
12059
12049
11998
11952
11981
12134
12209
12319
12347
12275
12256
12243
12235
12251
12271
12256
12298
12335
12380
12374
12293
12118
12016
11957
11923
11891
11949
11976
11880
11766
11676
11653
11676
11728
11824
11930
12040
12212
12249
12273
12288
12303
12353
12419
12443
12488
12517
12517
12434
12349
12253
12185
12101
11816
11742
11761
11848
11954
11998
11961
11902
11857
11824
11862
12053
12109
12152
12196
12249
12289
12259
12274
12318
12335
12332
12216
12142
12094
12061
11980
11908
12028
12067
12101
12147
12187
12252
12264
12256
12135
11947
11808
11834
11903
12040
12191
12318
12459
12534
12621
12643
12592
12453
12376
12261
12123
11972
11813
11563
11542
11602
11678
11764
11940
11951
12025
12114
12168
12229
12272
12245
12211
12154
12096
12080
12056
12001
11952
11936
11984
12069
12208
12362
12484
12504
12176
11975
11874
11920
12020
12231
12357
12472
12566
12641
12692
12498
12277
12070
11972
11966
12100
12097
12056
12034
11996
12018
12092
12164
12259
12316
12280
12113
12026
11928
11841
11736
11644
11747
11877
12006
12124
12244
12430
12449
12438
12353
12176
12042
12046
11973
11857
11801
11878
11895
11880
11871
11851
11780
11811
11899
12015
12125
12198
12357
12423
12490
12565
12586
12539
12418
12348
12209
12035
11917
11867
11934
12011
12062
12049
12079
12182
12264
12351
12439
12464
12471
12464
12422
12381
12305
12147
12073
12026
11993
11974
11973
11995
11997
12005
12008
11946
11610
11577
11653
11803
11958
12105
12319
12337
12313
12259
12211
12228
12275
12305
12293
12255
12278
12285
12234
12091
11876
11786
11999
12065
12090
12035
11902
11609
11577
11590
11695
11855
12045
12424
12595
12687
12622
12528
12517
12540
12563
12598
12622
12656
12630
12579
12487
12313
12147
12054
12059
11999
11940
11921
11744
11636
11599
11599
11604
11644
11733
11759
11758
11746
11727
11777
11823
11884
11965
12058
11988
12059
12213
12349
12426
12462
12507
12469
12461
12462
12445
12431
12426
12427
12436
12446
12460
12429
12413
12398
12346
12270
12235
12240
12167
12045
11954
11919
11971
11946
11934
11908
11812
11614
11593
11610
11644
11666
11809
11922
12039
12105
12153
12196
12260
12293
12355
12428
12508
12560
12535
12480
12407
12336
12286
12276
12295
12305
12307
12286
11999
11864
11803
11748
11655
11541
11587
11681
11794
11904
12027
12219
12188
12123
12045
11982
12154
12282
12345
12394
12354
12113
11768
11751
11736
11736
11769
11957
12070
12167
12243
12274
12323
12430
12499
12596
12702
12816
12854
12780
12639
12498
12360
12140
12032
11875
11716
11657
11699
11839
11974
12143
12293
12407
12567
12536
12474
12391
12243
12068
11752
11583
11454
11435
11433
11542
11672
11828
11942
12043
12325
12418
12493
12537
12494
12438
12236
12068
11959
11881
11839
11980
12031
12051
12037
11993
11999
12143
12148
12134
12181
12298
12502
12551
12524
12439
12298
12151
12079
12117
12108
12074
12019
11898
11873
11846
11885
11888
11610
11599
11786
11976
12131
12220
12214
12195
12150
12115
12102
12155
12191
12201
12205
12232
12280
12451
12562
12627
12611
12630
12634
12550
12476
12409
12264
11931
11914
11959
11955
11911
11892
11819
11766
11799
11909
11993
12060
12130
12145
12144
12181
12244
12352
12355
12300
12248
12212
12145
12034
11920
11857
11826
11818
11843
11879
11933
11980
12056
12140
12125
12087
12052
11964
11887
11962
12061
12164
12268
12341
12302
12319
12319
12289
12288
12436
12430
12339
12306
12287
12171
11883
11809
11723
11670
11649
11621
11670
11747
11889
12045
12223
12353
12505
12606
12671
12781
12879
12828
12719
12530
12325
11932
11832
11804
11812
11837
11838
11731
11746
11810
11944
12112
12346
12387
12327
12197
12127
12198
12259
12255
12166
12056
11967
11776
11694
11642
11602
11628
11726
11789
11870
11968
12085
12246
12615
12671
12635
12625
12631
12461
12323
12266
12241
12173
12079
12027
12022
12051
12119
12182
12211
12237
12230
12180
12135
12208
12231
12236
12240
12217
12164
12014
11948
11863
11773
11696
11847
11988
12175
12305
12349
12320
11968
11763
11687
11755
11838
11990
12152
12349
12493
12545
12445
12367
12250
12115
12046
12025
12042
12044
12045
12035
12055
12142
12202
12271
12283
12210
12140
12232
12274
12290
12306
12255
12075
12112
12166
12164
12085
11829
11727
11733
11869
12040
12109
11951
11871
11882
11987
12143
12368
12489
12648
12737
12668
12534
12298
12243
12239
12254
12202
11913
11800
11682
11596
11589
11625
11908
12142
12247
12253
12213
12202
12110
11954
11856
11832
11937
11960
11935
11874
11825
11848
12098
12171
12202
12261
12324
12406
12419
12393
12381
12395
12358
12184
12181
12223
12319
12464
12656
12589
12535
12432
12266
12055
12014
11996
12008
12026
12068
12192
12184
12145
12007
11800
11493
11428
11451
11564
11609
11579
11649
11834
12055
12236
12444
12832
12964
13021
12978
12887
12771
12456
12358
12307
12277
12249
12119
12034
11910
11828
11801
11778
11698
11620
11627
11700
11734
11622
11544
11580
11646
11733
12125
12341
12487
12554
12623
12627
12358
12265
12185
12138
12149
12335
12467
12536
12556
12451
12088
11933
11857
11790
11743
11658
11350
11240
11326
11572
11813
12165
12226
12215
12192
12182
12217
12304
12343
12372
12357
12321
12298
12270
12198
12182
12267
12565
12668
12701
12697
12659
12592
12345
12206
12113
12047
12017
11982
11954
11926
11886
11805
11726
11745
11845
11965
12004
11965
11852
11855
11907
11994
12089
12191
12385
12430
12416
12365
12315
12403
12506
12635
12747
12834
12891
12804
12650
12507
12363
12237
11973
11805
11699
11654
11573
11466
11483
11539
11610
11664
11701
11445
11428
11436
11553
11753
12204
12349
12346
12256
12163
12016
11935
11841
11864
12013
12202
12548
12650
12696
12714
12654
12363
12239
12127
12039
11939
11811
11761
11987
12212
12319
12331
12215
12118
12042
12014
12042
12094
12177
12177
12117
12035
12036
12249
12309
12318
12322
12297
12136
12035
11980
11922
11862
11845
12075
12249
12455
12582
12626
12620
12576
12493
12325
12123
12020
11957
11909
11816
11694
11621
11698
11726
11752
11871
12055
12074
12069
12118
12214
12310
12410
12505
12461
12354
12216
12170
12308
12483
12670
12808
12854
12813
12576
12524
12401
12180
11929
11477
11347
11336
11396
11429
11488
11640
11730
11817
11874
11910
11914
11903
11910
11929
11934
11795
11733
11731
11723
11719
11740
11878
12007
12163
12409
12631
13056
13400
13668
13760
13705
13615
13357
13119
12950
12825
12643
12253
12021
11776
11464
11175
10823
10731
10612
10440
10253
10223
10643
10840
11076
11251
11347
11557
11843
12174
12494
12753
12926
13069
13169
13292
13413
13510
13608
13556
13455
13273
13076
12753
12562
12413
12195
11936
11778
11664
11593
11506
11365
11222
11062
11031
11050
11164
11282
11352
11504
11635
11767
11908
12086
12402
12489
12501
12500
12524
12550
12705
12798
12912
12972
12988
12958
12962
13023
13118
13199
12956
12670
12382
12151
11983
11811
11358
11175
10996
10777
10502
10226
10375
10654
10891
11078
11297
11758
12009
12309
12623
12900
13276
13398
13435
13478
13526
13524
13500
13468
13437
13261
12968
12315
12031
11803
11589
11317
10720
10526
10469
10580
10696
10694
10834
10954
11138
11321
11507
12116
12487
12858
13151
13382
13507
13621
13717
13798
13765
13561
12935
12661
12368
12083
11960
12108
12152
12132
12025
11829
11675
11522
11401
11235
11191
11174
10817
10825
10989
11161
11233
11291
11378
11386
11385
11569
11879
12511
12745
13029
13333
13404
13052
12835
12667
12662
12745
12742
12492
12327
12107
11796
11419
10897
10911
10934
11140
11573
12030
12936
13374
13681
13746
13714
13543
13311
13076
12855
12617
12102
11668
11203
10912
10659
10435
10513
10750
10992
11103
11168
11497
11717
12009
12370
12638
12775
12765
12704
12724
12710
12553
12162
12300
12742
13087
13156
13107
13341
13497
13499
13415
13386
13497
13744
13788
13456
13045
12142
11507
10810
10174
9651
9337
9094
8827
8699
8777
9075
9512
10022
10719
10982
11452
12067
12788
13455
14011
14109
14080
13868
13554
12841
12677
12579
12339
12000
11341
11114
10986
10959
11122
11395
12268
12798
13282
13708
14011
14579
14794
14927
14934
14838
14687
14284
13915
13260
12286
11176
9383
8525
7913
7697
7669
7952
8496
9198
10077
10915
11582
12123
12570
13387
13952
14336
14469
14404
13733
13410
13174
12999
12891
12875
12565
12263
11916
11650
11544
11699
12096
12511
12996
13418
12965
12381
11643
10884
10242
9873
9693
9563
9746
10399
11335
11429
11436
11584
11741
12276
12594
12692
12594
12360
12052
11881
11872
12222
12667
13183
14350
14718
14932
15032
15038
14512
13824
13202
12543
11800
11138
9560
8871
8609
8876
9371
10074
10945
11683
11909
11695
10251
9484
9196
9531
10173
10856
11480
12103
12965
13408
13808
14021
14121
15092
15903
16372
16330
16013
15509
14325
13767
13314
12906
12443
11091
10129
9277
8977
9172
9651
10098
10397
10705
10912
11136
11585
12183
12776
12968
12793
12403
11886
11695
12029
13377
13493
12958
11808
10459
7816
7199
7819
9108
10396
11755
13250
14965
16469
17726
17951
18160
18507
18684
18088
15863
14565
13250
11794
9761
7698
5799
4201
3085
2560
2307
2278
3026
5881
7295
8675
10104
11392
12338
12966
13748
14650
15507
15426
15251
15324
15720
16177
16383
16612
16712
16658
15947
15952
16175
16170
15896
15565
14520
13795
12794
11660
10455
8915
8558
7966
7151
6953
7567
8609
9683
10592
11139
11521
12666
14410
16168
15821
14764
13595
12898
11941
11154
10252
9542
9003
8539
7957
7585
7739
8064
8655
9435
9867
9943
10021
10431
11519
12022
12550
12911
13361
14770
15269
15613
15891
16388
16922
16655
16391
16415
16303
15786
13392
12052
11031
10308
9775
9477
9634
9731
9686
9548
9338
9079
9019
9907
11280
12597
12958
13444
13961
14092
13074
12283
11835
11622
11169
10446
8943
9020
9827
10740
11147
11446
12026
12736
14186
14565
14788
15060
15165
14091
13397
12749
12011
11258
10471
8508
8208
9056
10657
12431
14476
16096
16719
16577
17009
16979
16197
14842
11239
9323
8096
7465
7139
6878
6600
6434
6224
6440
7863
9673
10986
12053
13151
14016
14757
14895
14794
14301
13782
13563
13121
12603
12264
12310
12630
12377
11935
11212
10906
11157
12021
12434
13073
13940
14912
15245
14465
13364
11852
10140
8802
8044
7998
8302
8613
9731
10829
11412
11748
12197
12690
13106
14536
15068
15167
15284
15474
15824
16011
15955
15742
15175
13453
13359
14108
14431
14334
13806
11275
9945
8608
7435
6408
5308
4101
2921
2295
2726
4398
6854
9432
11813
14172
16721
20290
20695
20357
19267
17895
16744
14199
12864
11522
9825
7905
6890
6869
7429
8428
9802
11150
11958
11143
10335
9836
9451
9091
9391
10370
12136
14209
17203
18823
20662
21823
21811
19238
16956
14116
11048
8177
5740
3933
3052
3310
4309
5177
5955
7557
9719
11764
14517
14800
14097
12958
11659
8695
8668
9903
12049
14075
15474
16483
17179
17403
16317
14725
13199
12350
12074
12209
12797
13547
14223
14357
13540
12597
11902
11824
11776
9634
8521
7620
6824
6596
7137
8341
9646
10383
10341
9651
8312
7956
9623
12329
14363
15351
16318
16180
15795
15069
14261
12948
12332
11893
11868
12287
13070
16507
17826
18140
17753
17155
15635
15011
14308
12886
10350
6249
5780
5998
6707
8320
9735
9886
9048
8069
7512
7535
8176
9361
10054
9701
9330
9799
10988
12395
13788
14756
15845
16191
16366
16127
15342
12909
11604
10624
9989
9901
10350
10684
12828
14896
16348
17171
17473
17334
16594
16350
15621
14238
12262
10641
10802
11148
11592
11753
10575
9545
8513
7250
5623
3689
2235
1987
3146
5987
9793
12949
14783
15517
15562
16375
16711
16725
16539
16269
14695
13573
12249
11127
10318
9684
8908
8011
8340
10164
14736
16757
18220
19356
19969
18846
17515
15604
13094
9847
6946
5575
5374
5696
7058
8729
10103
12563
13116
12713
11482
9497
7140
5420
5680
7045
8673
10336
13581
14520
15013
15365
15388
14117
13640
13405
13302
13721
14650
15238
14365
13273
12283
11427
10772
11393
12323
13351
13960
13060
12926
13165
13453
13874
14374
14076
13514
13682
13255
11717
9801
8965
8140
7817
8058
7966
7758
7450
7138
7322
8326
10052
11705
12824
13459
13802
13260
12737
12691
13059
13393
15275
17351
19578
20883
20759
17729
16295
15195
14150
12606
10517
5237
2243
122
122
48
1492
4028
6831
9300
11530
12983
13685
14141
13974
13586
13259
13479
14299
15042
15527
15231
14650
14470
14424
14035
13218
11825
10624
8870
8298
8930
11016
13672
15766
17235
18189
18612
18030
16867
15094
13177
11415
7603
6618
6505
6616
7271
8610
10267
11608
12313
12673
12825
10878
10796
11617
12504
13060
12935
12295
10905
8672
6596
5466
5845
7710
9902
11817
13530
17051
18188
18568
18758
18753
16380
13874
11268
9483
8389
7000
6049
6273
7493
8727
9489
9773
9788
9947
10651
11879
13852
14179
14660
15269
15996
16590
16231
15716
14921
14128
13507
12402
11832
11852
12077
12219
12462
13259
14988
16252
16514
15088
13366
11062
8723
6384
3957
2126
1555
1785
2685
4452
6974
9810
12291
13983
15404
15890
16404
17001
17616
18598
18794
18630
18138
17305
16264
12764
9925
6886
4424
3773
5398
8236
10953
13084
14116
14151
13219
12538
12131
11895
11613
9943
9120
9500
11334
13568
15646
17023
17139
16272
15101
13306
11025
7971
4824
2986
2650
3072
4030
6005
8923
11870
16188
17855
18577
18362
17790
16340
15389
14505
13632
12540
11187
10715
12456
14126
15411
16218
15892
14635
13095
11260
8904
6171
3075
697
455
2712
6247
9429
11890
13722
14851
15168
14643
14148
13681
13188
12246
12127
12278
12843
13647
14537
15851
16013
15928
15576
14820
12762
11434
10308
9360
8680
8799
9677
10807
11646
12621
12479
12019
11777
11633
11452
12002
12658
13401
13916
14155
14352
14694
15056
15061
14621
13425
12651
11671
10743
10156
9952
9902
9935
9812
9760
12025
13198
13711
13347
12376
11277
8982
8749
9092
9466
9278
8879
8593
8858
9711
10696
11673
12583
13262
13634
13694
13657
13617
13550
13408
13040
12958
12861
12850
12904
13302
13724
14108
14220
14151
13906
13207
12824
12464
12122
11818
11276
10869
10637
10698
11346
13122
16680
17172
16808
16074
15173
12644
11348
9633
7445
5218
3581
3253
4450
6633
8970
10796
11980
12602
13124
13391
13582
13795
14036
13723
13422
13298
13375
13516
13383
13179
13242
13095
12966
13315
14231
13963
13246
12223
11067
9866
9803
9920
10182
10348
10228
10322
10878
11770
13309
13812
14131
14297
14184
13381
12952
12525
12031
11273
9749
9330
9236
9543
10140
10774
11387
11872
12182
12441
12583
12765
12896
12941
12896
12887
12891
12854
12786
12705
12620
12600
12592
12587
12566
12538
12456
12449
12496
12591
12680
12754
12720
12641
12522
12378
12262
12122
12130
12032
11839
11753
12107
12457
12835
13154
13257
12871
12452
11968
11565
11271
11081
10542
10041
9540
9590
10277
11111
11626
11675
11524
11385
11409
11537
11689
11829
12383
12951
13403
13648
13786
13746
13647
13506
13232
12330
11795
11324
10921
10763
10862
11291
11520
11870
12139
12287
12609
12742
12727
12752
12823
12887
13105
13320
13237
12881
12432
11554
11300
11202
11085
11024
10919
10659
10461
10291
10225
10600
11791
11949
11988
12123
12341
12693
12774
12844
12912
12954
12917
12740
12699
12682
12663
12665
12631
12575
12482
12387
12382
12484
12555
12651
12755
12801
12848
12700
12514
12308
12120
11985
11577
11297
10885
10533
10476
10790
11621
11823
11917
11981
12011
12201
12417
12665
12901
13165
13408
13572
13583
13500
13335
13050
12212
11787
11309
10771
10406
10238
10261
10509
10964
11538
12237
13110
13175
13184
13242
13175
12525
12207
11997
11644
11212
10808
10447
10648
10915
11175
11404
11951
12289
12563
12884
13180
13753
13838
13835
13759
13579
13217
12396
11672
10746
10053
9775
9701
9706
9899
10344
11355
11836
12158
12264
12242
12376
12540
12742
12947
13114
13184
13131
13069
13002
12913
12822
12630
12497
12327
12132
11941
11887
12250
12396
12469
12524
12512
12415
12370
12315
12205
12054
11797
11680
11624
11689
11775
11847
11985
12037
12071
12102
12113
11981
11922
11946
12028
12119
12178
12194
12191
12183
12188
12209
12279
12296
12290
12298
12320
12405
12438
12454
12535
12683
12734
12548
12416
12166
11841
11549
11412
11499
11537
11512
11503
11538
11616
11840
12094
12218
12230
12227
12173
12152
12131
12122
12116
12095
12039
11969
11894
11887
12040
12075
12023
12010
12087
12207
12249
12294
12350
12376
12402
12527
12581
12640
12833
13254
13954
13999
13857
13702
13521
13229
12411
11778
11004
10243
9421
8819
8569
8638
9033
9695
10427
11671
12141
12475
12652
12769
12745
12654
12578
12530
12546
12608
12589
12536
12469
12404
12376
12377
12423
12471
12531
12564
12523
12496
12473
12453
12430
12396
12361
12350
12328
12310
12319
12335
12338
12357
12402
12420
12412
12415
12398
12347
12274
12200
12163
12072
11955
11814
11672
11359
11244
11351
11531
11690
11781
11980
12067
12116
12144
12071
11950
11996
12018
11965
11921
11938
11930
11941
11977
12009
12069
12246
12294
12330
12350
12360
12354
12344
12356
12374
12384
12401
12476
12493
12511
12566
12658
12845
12803
12671
12485
12300
12131
11765
11612
11509
11367
11132
10987
11148
11338
11512
11716
12202
12369
12501
12577
12557
12456
12151
12068
11963
11830
11758
11645
11637
11841
12093
12257
12359
12576
12707
12846
12952
12979
12846
12793
12788
12795
12742
12411
12171
11944
11772
11590
11304
10982
10887
10807
10793
10848
11473
11796
12014
12122
12205
12342
12674
12716
12661
12501
12312
12049
11996
11999
11996
11981
12004
12003
12054
12164
12276
12393
12553
12566
12552
12531
12517
12486
12466
12429
12392
12356
12314
12212
12195
12156
12090
12035
11985
12016
12078
12133
12164
12201
12252
12252
12241
12198
12162
12238
12240
12222
12200
12148
12061
12008
11973
11970
11973
11923
11821
11789
11813
11852
11852
11777
11763
11782
11745
11727
11792
12054
12175
12257
12307
12368
12378
12334
12273
12220
12206
12238
12259
12279
12279
12274
12240
12256
12299
12327
12353
12354
12305
12241
12136
12021
11933
11833
11944
12030
12049
11991
11846
11491
11334
11288
11340
11384
11458
11818
11963
12085
12200
12351
12589
12620
12621
12615
12604
12574
12586
12593
12602
12601
12594
12633
12641
12571
12441
12311
12079
11956
11823
11702
11603
11586
11854
11979
12065
12129
12238
12374
12389
12346
12275
12289
12339
12359
12408
12416
12427
12419
12380
12348
12251
12062
11838
11489
11378
11268
11202
11236
11271
11224
11309
11482
11738
11981
12332
12459
12532
12563
12569
12570
12561
12548
12519
12487
12452
12313
12255
12221
12261
12338
12435
12394
12298
12195
12113
12063
12054
12045
12043
12013
11977
12015
12040
12044
12071
12108
12127
12167
12154
12116
12060
12027
12021
12035
12076
12156
12224
12341
12375
12394
12400
12414
12426
12490
12480
12397
12205
11955
11548
11425
11358
11398
11532
11656
11900
12086
12226
12288
12295
12119
11982
11851
11746
11724
11817
11864
11892
11917
11962
12068
12370
12443
12433
12399
12426
12509
12559
12586
12606
12634
12652
12565
12446
12309
12182
12096
12071
12052
11981
11837
11648
11483
11620
11800
11935
11974
11958
11972
11993
12042
12091
12102
11968
11895
11884
11932
11958
12027
12150
12159
12172
12211
12243
12256
12229
12243
12295
12388
12486
12589
12625
12642
12639
12598
12433
12391
12332
12237
12150
12056
12008
11904
11777
11636
11469
11405
11469
11522
11619
11728
11839
11805
11804
11862
11990
12146
12295
12337
12362
12402
12419
12366
12371
12384
12385
12434
12498
12603
12596
12536
12463
12422
12465
12509
12496
12409
12300
12123
12074
12029
12000
11960
11928
11880
11955
12008
11950
11823
11502
11394
11359
11388
11493
11686
12067
12081
11993
11949
11961
12055
12179
12280
12327
12331
12288
12305
12381
12493
12602
12682
12685
12676
12671
12660
12660
12510
12313
12078
11845
11638
11526
11534
11567
11611
11677
11659
11584
11629
11705
11819
11912
12133
12261
12385
12483
12553
12564
12462
12356
12266
12210
12199
12210
12137
12028
11947
11916
11894
11975
12056
12158
12251
12299
12268
12278
12331
12395
12425
12430
12360
12307
12224
12095
11965
11927
12009
12117
12217
12256
12403
12423
12396
12326
12239
12184
12107
12062
11984
11869
11747
11523
11520
11650
11802
11898
11971
11925
11848
11819
11852
11895
11989
12049
12086
12106
12155
12232
12244
12251
12245
12248
12309
12468
12551
12630
12685
12695
12552
12404
12276
12222
12176
12190
12182
12180
12168
12114
12056
11826
11693
11565
11465
11446
11509
11635
11708
11776
11823
11835
11978
12102
12226
12331
12361
12366
12391
12443
12487
12521
12560
12540
12474
12336
12209
12120
12072
12115
12167
12163
12097
12036
11941
11903
11915
11970
12040
12264
12396
12480
12508
12533
12544
12452
12331
12210
12108
11997
11892
11869
11846
11816
11777
11756
11745
11697
11633
11643
11724
11849
11900
12005
12076
12091
12150
12241
12346
12421
12412
12329
12262
12273
12214
12156
12107
12167
12314
12435
12481
12502
12506
12500
12484
12470
12432
12376
12070
11924
11796
11736
11733
11710
11704
11750
11784
11845
11925
12093
12106
12084
12058
12084
12157
12163
12167
12101
12059
12169
12253
12315
12398
12485
12522
12438
12360
12230
12102
12026
12115
12168
12207
12226
12228
12169
11951
11929
11964
11990
11991
12026
12042
12070
12092
12114
12164
12148
12114
12135
12140
12141
12138
12142
12157
12159
12156
12212
12247
12240
12217
12198
12195
12204
12170
12126
12062
12036
12028
12005
11998
11982
11951
11914
11732
11668
11613
11611
11667
11818
11942
12124
12245
12286
12367
12427
12497
12507
12446
12379
12249
12186
12163
12129
12075
12207
12328
12354
12339
12321
12341
12402
12440
12406
12309
12219
12218
12161
12070
11968
11838
11651
11700
11787
11855
11956
12048
12068
12042
12047
12061
12095
12181
12197
12206
12228
12193
12132
12021
11922
11830
11810
11853
12019
12052
12050
12071
12117
12253
12365
12491
12579
12632
12649
12635
12600
12592
12571
12502
12216
12064
11967
11894
11830
11814
11918
11959
11979
12000
12034
12089
12075
12071
12080
12107
12143
12139
12114
12114
12111
12081
11971
11875
11756
11662
11577
11498
11512
11514
11521
11605
11747
12066
12246
12404
12524
12557
12490
12432
12387
12337
12258
12154
11978
11996
12078
12146
12200
12340
12394
12376
12326
12275
12304
12264
12208
12135
12113
12112
11944
11844
11782
11747
11793
12015
12201
12445
12660
12780
12888
12947
12923
12831
12709
12605
12300
12081
11824
11585
11426
11371
11544
11666
11733
11770
11814
11953
12054
12126
12148
12145
12148
12131
12135
12136
12149
12174
12264
12302
12312
12291
12242
12123
12119
12139
12174
12199
12195
12192
12165
12141
12103
12069
12017
12002
11968
11927
11907
11994
12062
12105
12160
12169
12174
12242
12290
12353
12412
12442
12343
12244
12150
12086
12101
12145
12162
12158
12078
11908
11718
11374
11299
11292
11424
11682
11994
12387
12462
12453
12386
12268
12125
12156
12185
12204
12200
12172
12153
12111
12110
12130
12147
12273
12423
12482
12398
12306
12120
12062
12045
12036
11956
11870
11878
11898
11837
11791
11803
11889
11929
11954
12002
12092
12461
12607
12713
12787
12823
12838
12791
12709
12591
12484
12332
12078
12060
12054
12032
12011
11994
11895
11866
11813
11746
11719
11823
11897
12003
12098
12133
12079
12045
11972
11823
11687
11647
11687
11698
11730
11828
11959
12183
12262
12363
12433
12446
12435
12430
12403
12387
12353
12247
12027
12113
12198
12229
12292
12336
12239
12149
12050
11989
12003
12054
12047
12065
12104
12144
12233
12275
12281
12306
12384
12461
12507
12428
12302
12112
11883
11532
11435
11364
11357
11375
11467
11889
12092
12231
12370
12518
12597
12555
12542
12595
12654
12706
12696
12629
12505
12378
12229
11876
11716
11593
11507
11497
11643
11747
11925
12065
12089
12012
11973
12008
12018
11949
11859
12019
12125
12159
12197
12246
12304
12373
12395
12361
12271
12219
12318
12341
12312
12205
12105
12140
12262
12306
12270
12271
12291
12314
12464
12617
12666
12638
12446
12284
12122
11953
11775
11641
11501
11505
11551
11601
11645
11655
11636
11645
11687
11756
11868
11872
11879
11888
11884
11934
12048
12159
12341
12474
12543
12514
12494
12526
12552
12477
12333
12128
11992
11873
11840
11861
11997
12155
12310
12366
12338
12230
12151
12095
12111
12146
12177
12188
12161
12238
12354
12471
12732
12870
12980
13071
13107
12956
12423
12350
12343
12254
12060
11650
11587
11599
11634
11657
11670
11689
11694
11669
11679
11712
11746
11837
11948
12014
12059
12056
12069
12093
12123
12171
12189
12111
12072
12041
11991
11918
11895
11985
12091
12183
12254
12305
12271
12103
11942
11931
12018
12238
12260
12256
12259
12263
12213
12124
12058
12042
12041
12077
12066
12064
12086
12201
12381
12475
12398
12296
12106
11829
11560
11429
11504
11582
11692
11822
12036
12160
12287
12410
12518
12641
13013
13143
13133
12997
12765
12236
12008
11832
11667
11556
11574
11688
11811
11948
12101
12255
12390
12349
12337
12372
12395
12402
12395
12411
12450
12501
12446
12307
12255
12125
11972
11873
11635
11487
11349
11242
11202
11499
11773
12007
12171
12307
12403
12454
12384
12303
12289
12351
12280
12172
12135
12150
12172
12198
12171
12096
11981
11852
11785
11874
11924
11852
11703
11592
11570
11699
11904
12124
12301
12411
12562
12614
12668
12677
12719
12758
12623
12506
12438
12438
12450
12430
12343
12231
12097
11873
11385
11215
11219
11308
11508
11775
12199
12295
12345
12373
12410
12328
12201
12066
11940
11932
12179
12320
12411
12394
12328
12263
12123
12057
11985
11882
11786
11748
11775
11885
12023
12161
12285
12509
12603
12599
12523
12420
12420
12435
12252
11953
11727
11717
11791
11864
11984
12094
12141
12141
12167
12196
12204
12181
12180
12185
12148
12068
12011
12000
11931
11938
11953
11961
11991
12146
12246
12357
12422
12451
12479
12454
12370
12207
12007
11859
11694
11653
11595
11540
11566
11833
11989
12150
12321
12454
12527
12497
12426
12340
12286
12277
12262
12273
12345
12398
12399
12382
12247
12057
11855
11803
11826
11839
11798
11742
11771
11907
12154
12245
12293
12322
12334
12332
12184
12129
12116
12137
12150
12198
12186
12094
12027
12014
12021
12142
12242
12332
12389
12426
12351
12254
12158
12038
11885
11763
11782
11898
12058
12201
12255
11988
11834
11751
11784
11832
11917
11963
12031
12116
12200
12292
12480
12631
12772
12848
12792
12433
12294
12250
12138
11969
11876
11946
12007
12058
12112
12141
12060
11990
11908
11832
11784
11688
11674
11728
11829
11926
11990
12056
12141
12269
12397
12477
12421
12415
12426
12424
12353
12203
11975
11887
11817
11785
11743
11885
12017
12070
12118
12194
12358
12388
12376
12324
12244
12171
12144
12122
12078
12075
12105
12044
12051
12075
12077
12044
11960
11926
12043
12164
12175
12154
12262
12291
12310
12362
12369
12378
12500
12499
12440
12414
12404
12220
12192
12192
12138
12074
11994
11974
11989
12015
11993
11931
11759
11685
11656
11648
11647
11703
11802
11944
12099
12238
12348
12537
12473
12418
12374
12373
12249
12128
11998
11869
11808
11865
11944
12018
12077
12147
12211
12313
12400
12479
12477
12437
12300
12182
12106
12045
11991
11939
11864
11908
11982
12044
12098
12166
12170
12192
12266
12343
12359
12185
12003
11770
11631
11643
11762
11840
11906
11974
12063
12238
12322
12416
12472
12471
12464
12418
12420
12421
12383
12321
12234
12222
12223
12255
12284
12249
11972
11945
11969
11968
11960
11967
11896
11814
11761
11761
11883
11971
12071
12157
12244
12289
12185
12105
12073
12064
12066
12266
12367
12407
12460
12464
12409
12334
12273
12184
12086
11960
11787
11747
11719
11723
11738
11850
11965
12029
12053
12059
12040
12016
12014
12037
12087
12116
12247
12300
12329
12344
12344
12335
12341
12343
12318
12272
12232
12237
12229
12200
12184
12176
12173
12183
12228
12235
12188
12118
12019
12016
12006
12013
12075
12303
12324
12273
12203
12149
12082
11997
12027
12055
12073
12100
12204
12239
12206
12163
12154
12163
11987
11870
11780
11728
11752
11910
12084
12317
12538
12681
12681
12544
12415
12343
12275
12204
12104
11953
11842
11818
11800
11735
11695
11628
11543
11502
11559
11815
11916
12040
12211
12330
12401
12470
12557
12605
12588
12532
12412
12368
12326
12245
12090
11795
11719
11650
11586
11517
11459
11457
11523
11641
11759
11882
12146
12277
12348
12394
12422
12553
12589
12590
12599
12635
12672
12652
12608
12545
12489
12457
12438
12402
12324
12255
12209
12221
12151
12029
11937
11925
11964
11996
11999
12017
11982
11931
11774
11642
11518
11435
11436
11460
11506
11623
11833
12026
12147
12391
12516
12604
12656
12713
12768
12785
12764
12755
12749
12757
12668
12561
12422
12307
12214
12064
11943
11797
11633
11499
11406
11278
11202
11110
11074
11176
11710
11936
12117
12220
12278
12305
12410
12460
12513
12557
12581
12477
12377
12276
12191
12113
12022
11985
11988
12007
12021
12017
12026
12077
12148
12235
12302
12241
12196
12208
12257
12331
12354
12284
12239
12209
12164
12104
11943
11938
12001
12062
12119
12268
12330
12391
12444
12478
12500
12436
12319
12204
12135
12076
11877
11822
11818
11817
11767
11673
11588
11589
11595
11605
11702
11977
12021
12007
12043
12154
12297
12478
12490
12491
12550
12640
12661
12631
12568
12441
12275
11918
11757
11615
11476
11350
11259
11348
11527
11743
11940
12130
12419
12538
12625
12683
12718
12713
12694
12693
12733
12755
12741
12735
12746
12772
12760
12675
12164
11863
11560
11372
11339
11402
11482
11447
11391
11360
11369
11619
11812
11975
12066
12162
12271
12345
12284
12165
12100
12056
11795
11708
11739
11875
12077
12308
12489
12520
12577
12627
12665
12618
12538
12461
12364
12248
12036
11900
11760
11656
11568
11465
11189
11216
11359
11580
11798
12098
12132
12162
12268
12435
12591
12763
12761
12758
12775
12780
12770
12840
12945
12978
12955
12666
12483
12272
12099
11945
11787
11614
11582
11670
11810
11892
11747
11746
11772
11808
11892
11971
12124
12186
12153
12133
12069
11851
11834
11957
12058
12048
11797
11699
11648
11619
11577
11473
11337
11384
11499
11707
11853
11948
12057
12207
12370
12527
12641
12689
12689
12704
12755
12792
12775
12753
12723
12700
12682
12646
12561
12524
12514
12506
12440
12164
12024
11928
11890
11892
11738
11636
11519
11420
11382
11438
11669
11804
11927
12019
12066
12172
12195
12127
12000
11913
11943
12166
12265
12383
12503
12600
12711
12688
12622
12542
12466
12456
12444
12373
12266
12166
12116
12035
11962
11951
12039
12109
12244
12307
12269
12166
12096
12073
11863
11649
11415
11186
11030
10932
10911
10972
11094
11238
11405
11752
12012
12266
12478
12647
12731
12606
12462
12372
12375
12607
12817
13018
13144
13198
13207
13107
13033
13009
12962
12804
12431
12201
11985
11853
11707
11543
11442
11440
11477
11547
11580
11508
11645
11781
11842
11868
11911
11915
11927
11964
12018
12131
12490
12601
12689
12812
12916
12996
12960
12898
12812
12671
12509
12034
11704
11365
11086
10943
11075
11183
11226
11193
11138
11348
11677
11992
12268
12538
12789
13325
13454
13463
13453
13445
13399
13223
12943
12680
12492
12270
11559
11192
10884
10737
10608
10341
10172
10117
10215
10402
10645
11113
11385
11781
12226
12596
13046
13183
13235
13279
13301
13327
13358
13417
13450
13431
13356
13103
12983
12844
12665
12477
12178
12029
11861
11717
11496
11333
11376
11410
11447
11602
11888
12522
12671
12683
12678
12720
12811
12770
12688
12538
12392
12182
11261
10796
10416
10124
9982
9897
9816
9908
10157
10819
11179
11501
11773
11989
12281
12325
12404
12572
12827
13110
13383
13466
13685
14052
14384
14616
14486
14200
13824
13368
12917
12122
11728
11350
10930
10539
9893
9711
9651
9790
10092
10529
10955
11351
11786
12535
12728
12865
12917
12934
12992
13265
13357
13416
13451
13467
13606
13526
13375
13231
13194
13029
12779
12437
12049
11600
11227
10518
10331
10342
10419
10472
10673
10927
11150
11300
11360
11459
11567
11586
11727
11902
12027
12021
12067
12203
12326
12432
12576
12610
12662
12753
12963
13253
13762
13769
13630
13495
13379
13222
13025
12732
12433
12080
11663
10863
10602
10392
10278
10235
10474
10695
10947
11168
11357
11649
11880
12166
12327
12278
12196
12370
12492
12619
12684
12783
13200
13358
13524
13755
14053
14259
14756
15024
15097
14936
14571
13536
13008
12547
12145
11643
10866
8960
8064
7365
6959
6886
7140
7811
8736
9571
10092
10444
10895
11401
12232
12490
12878
13318
13661
14008
14554
14650
14744
14842
14907
14527
14242
13896
13564
13308
12965
12785
12551
12321
12178
12167
12197
11998
11685
11431
11185
10658
10364
10283
10295
10376
10475
10911
11215
11525
11734
11839
12383
12613
12754
12760
12696
12534
11432
10781
10327
10202
10182
10291
10476
11002
11582
11997
12549
12757
12909
13177
13669
14183
14905
14908
14751
14532
14265
13480
12939
12352
11848
11434
11014
10441
10425
10614
11066
11692
12764
13010
13095
13047
12821
12325
12314
12406
12526
12679
12817
12532
12678
13059
13374
13538
13092
12458
11731
11086
10594
10409
10603
10796
10912
10920
10576
9539
9521
9769
10239
10674
10986
11183
11084
10774
11003
11347
11839
12375
12872
13863
14202
14535
14738
14731
14581
14531
14401
14202
14139
14136
14375
14432
14208
13747
13012
11445
11024
10647
10275
9904
9443
9053
8877
8812
8976
9285
9333
9357
9563
9976
11184
11926
12533
12872
13008
13069
12764
12595
12481
12305
12366
13068
12940
12637
12643
13006
13530
14436
14900
15168
15088
14733
13284
12827
13047
13505
13696
13104
12528
11910
11114
9986
8768
8160
8158
8067
7858
7878
8157
8256
8191
8685
9959
11326
13098
13600
13970
14204
14278
14505
14648
14638
14676
14890
15215
15847
15800
15684
15338
14457
12453
12134
11853
11293
10578
9978
8873
8342
7716
7107
7074
7597
8661
9749
10592
11313
12149
13308
14661
15897
15935
15819
15496
14917
14142
12317
11299
10356
9661
9176
8999
9178
9864
10690
11526
13364
14173
14994
15747
16263
15571
14847
13852
12652
11590
10689
10486
10235
9857
9135
8358
7950
7986
8379
8868
9451
10349
11495
13154
13283
13124
12822
12637
12473
12427
13316
14151
14888
15284
14860
14956
14994
14688
13918
12912
12559
11984
11271
10583
10670
12748
13568
14326
14884
14897
14687
14327
13420
11600
9291
7448
6094
5218
4615
4486
5108
6273
7773
8996
9642
10143
12048
12969
13769
14367
14893
18505
20013
20145
19185
17701
16129
13273
12211
11414
10582
9288
7279
5361
4563
4448
4921
9173
11924
14551
16858
18514
19518
20074
18722
17125
15259
13229
10945
6491
5363
5139
5695
6441
7242
8052
8391
8538
9076
10111
11181
12060
12791
13403
14860
16230
17384
18042
18209
17815
17577
17246
16616
15546
14278
11108
9518
8433
8234
8641
9353
9983
10317
10464
10635
10969
12098
12442
12501
12402
12478
14382
15495
16154
16129
15408
13150
11917
10367
8723
7348
6602
6137
5737
5783
6633
7927
9089
10239
11356
12976
13213
13299
13486
13694
14581
14590
13951
13277
13463
14294
16139
16659
16499
15603
14499
12952
12667
12199
11297
10476
10015
10367
10820
11601
11964
11605
9775
9169
9589
11029
12463
13157
13114
12613
10200
8820
8407
9395
10632
11344
11273
10696
10634
11190
11858
12620
13289
13469
13348
13650
13901
14117
14354
14729
15405
15637
15230
14442
13647
12310
11453
11040
10994
11294
11650
11453
11038
11064
11995
13193
13542
12530
11321
10216
9942
10554
11325
11882
12408
12580
12431
11248
9657
7927
6564
6288
6962
8127
9832
11692
13057
13751
13928
14240
14137
13964
13778
13633
13530
13493
13511
13487
13402
13509
14422
15186
16552
18212
19272
18948
17939
16771
15330
13373
11027
5291
2226
166
9
9
18
18
1272
4142
7433
10148
12234
13708
14969
17042
17187
17552
18366
18746
18155
18209
17857
16443
14420
10954
9217
7086
5023
3421
2275
2276
3487
4988
6133
7682
9873
12099
13910
15123
16014
18483
19332
19434
18683
17387
14441
13125
11797
10755
9870
9120
8525
8161
8626
9690
11090
14046
14533
14034
12837
11300
9962
8985
9604
10876
12300
13535
15274
17767
19324
18883
17565
15834
13673
11152
7176
5571
4288
3668
3524
3422
4508
7855
12652
16694
19364
20677
20987
19328
17919
16143
14053
12098
7482
4970
3277
2947
3792
4999
6435
8469
10570
12165
13234
13811
13790
12781
12476
12515
13041
13992
15119
16937
17170
16965
16414
15350
12299
11743
12168
13847
15994
17229
16876
16242
15190
14000
12847
9076
6491
3920
1861
258
9
9
770
770
3869
7264
9909
11845
13231
14518
15206
16475
17568
18148
17852
17925
17531
16696
16010
15499
14433
12315
10028
8513
7421
6254
5939
6921
8620
10708
14996
16205
16667
16519
15959
14988
12096
10776
9762
9184
9030
9024
9460
10197
11226
12212
13961
14228
13221
11187
9288
7979
6995
6843
7727
9802
12423
15511
15727
16077
16254
15716
13266
11985
10467
9006
7942
7299
7068
7537
8590
9751
11235
12911
15120
15443
15586
15746
15897
15326
14505
13667
12934
12342
12096
13470
14144
14049
12858
11699
11553
12787
13927
14450
13892
12554
9965
9540
9652
9670
9256
8696
7740
6642
6244
6762
7979
9442
11115
12597
13906
15111
16777
16935
16867
16690
16292
14930
13800
12485
11403
11004
10878
11267
12084
12681
13070
13605
13203
12244
11146
10015
8708
7599
6986
6886
7241
7726
8494
9716
11150
13730
14750
15156
15271
15236
14539
14179
13886
13622
13279
13002
12631
12553
13438
14988
16185
15558
14886
14341
13632
12940
12134
9741
8276
6562
5054
4782
5601
6927
8444
9727
10716
11529
12246
12964
13060
12827
13190
14135
15157
15659
14679
13931
13117
12520
12024
10963
10403
9844
9543
9385
9423
9897
10601
11327
11932
12996
13282
13327
13331
13407
13701
13776
13793
13802
13862
13911
13498
13072
12618
12337
13020
14989
15266
14994
14875
14701
14404
13005
11744
10249
8567
7072
6032
5329
5050
5656
7410
9485
11177
12907
12925
12893
13031
13275
13584
14217
14395
14472
14301
13760
13168
13347
13317
12807
11905
10969
9619
9408
9740
10529
11369
12068
12674
13281
14075
14188
14145
13864
13436
11969
11340
10711
9868
9631
10009
10376
10675
11110
11126
11263
11684
12204
12992
13135
13267
13360
13408
13267
13109
12882
12545
12200
12034
11933
12214
12570
12771
12818
12731
12519
12326
12217
12103
11870
10988
10616
10481
10713
11254
12480
12955
13382
13541
13475
13356
13211
13125
13086
12825
12432
11599
11340
11350
11591
11844
12297
12269
12102
11636
11031
10556
10173
10336
10648
10835
10849
11384
11909
12400
12838
13320
13681
14389
14449
14313
13938
13429
11969
11064
10261
9704
9264
9073
9330
10016
10922
12314
12580
12754
12877
12909
12762
12749
13099
13794
14419
15009
15783
15498
15002
14447
13813
12102
11318
10484
9236
7917
7254
7396
7956
8653
9295
9748
10172
10624
11613
12010
12361
12784
13156
13359
13322
13314
13284
13139
12919
12637
12519
12595
12856
13092
13121
12949
12708
12491
12332
12227
12018
11994
12206
12479
12781
12941
12852
12720
12588
12462
12162
11976
11733
11348
11022
10819
10695
10808
10897
11065
11462
12284
12439
12505
12552
12610
12649
12778
12894
12971
13021
12958
12758
12752
12646
12445
12325
12274
11993
11732
11466
11294
11251
11647
11760
11726
11934
12319
12717
13023
13344
13579
13787
13713
12772
12006
11106
10515
10376
10589
10668
10536
10247
10031
10098
10902
11158
11270
11264
11430
12302
12635
12902
13207
13506
13799
13864
13847
13744
13599
13355
12742
12397
12025
11706
11465
10995
10916
10968
11076
11308
11601
11980
12055
12113
12175
12292
12701
12807
12854
12874
12878
12850
12748
12669
12533
12331
12086
11743
11753
11969
12235
12419
12739
12710
12484
12239
12096
11966
11612
11430
11365
11305
11212
11367
11442
11476
11620
11849
12017
12008
11917
11878
11908
12011
12316
12379
12387
12358
12346
12403
12426
12451
12476
12500
12499
12506
12441
12358
12344
12401
12379
12251
12050
11821
11674
11693
11856
11969
12100
12218
12266
12235
12232
12244
12191
12109
12221
12291
12322
12306
12194
12029
11998
12237
12450
12564
12592
12683
12714
12634
12548
12502
12428
11814
11546
11310
11046
10760
10680
10935
11182
11279
11324
11471
11937
12133
12246
12308
12416
12719
12813
12914
12994
13015
12915
12789
12654
12483
12251
12029
11856
11896
11945
11921
11957
12134
12186
12199
12127
11938
11731
12160
12439
12570
12573
12457
12257
12303
12336
12225
12028
11686
11527
11488
11529
11629
11817
12256
12449
12584
12561
12425
12146
12055
11967
11847
11724
11731
12096
12241
12382
12507
12566
12603
12520
12356
12181
12001
11808
11857
11851
11856
11946
12055
12187
12259
12378
12491
12536
12324
12077
11759
11423
11158
11165
11699
11828
11885
11943
12041
12219
12267
12394
12490
12481
12424
12314
12315
12361
12408
12429
12453
12471
12624
12797
12812
12691
12746
12753
12633
12372
12007
11266
11144
11151
11167
11216
11377
11598
11811
11942
11952
11931
12066
12144
12209
12241
12207
12092
12115
12195
12270
12312
12348
12321
12305
12289
12300
12321
12287
12275
12325
12402
12448
12377
12319
12250
12189
12135
12074
11960
11886
11836
11850
11887
11888
11891
11954
12031
12101
12123
12091
12088
12114
12168
12239
12382
12451
12513
12535
12527
12405
12331
12299
12283
12259
12261
12239
12209
12177
12152
12153
12217
12215
12172
12017
11757
11590
11505
11387
11297
11371
11617
12301
12566
12690
12692
12668
12400
12186
11955
11730
11520
11297
11020
11118
11296
11421
11512
12006
12306
12507
12637
12740
12857
13151
13290
13362
13348
13283
13042
12847
12642
12424
12199
11937
11336
10956
10553
10314
10388
10821
10932
11152
11493
11870
12437
12552
12597
12628
12642
12652
12678
12697
12722
12731
12729
12685
12639
12570
12490
12373
12238
12056
12058
12084
12020
11918
11835
11912
12025
12115
12156
12194
12143
12079
12037
12037
12020
12035
12075
12118
12133
12149
12185
12178
12162
12191
12234
12272
12331
12318
12288
12257
12237
12170
12148
12158
12153
12102
11879
11801
11812
11857
11860
11838
11886
11876
11838
11789
11746
11730
11797
11835
11850
11902
12030
12241
12297
12342
12364
12401
12471
12494
12502
12495
12513
12575
12829
12884
12885
12817
12710
12457
12329
12224
12089
11930
11512
11273
11098
10982
10909
10908
11199
11470
11739
11971
12145
12186
12100
12073
12111
12163
12199
12235
12250
12267
12253
12213
12137
12157
12199
12198
12137
12116
12239
12361
12438
12461
12461
12423
12453
12486
12489
12446
12345
12285
12198
12133
12113
12121
12118
12145
12221
12280
12282
12221
12154
12059
11992
12016
12142
12135
12094
12029
11937
11866
11711
11675
11644
11630
11643
11688
11756
11852
11949
12036
12121
12247
12314
12366
12389
12410
12490
12554
12608
12634
12661
12651
12589
12564
12535
12520
12512
12465
12404
12276
12059
11827
11438
11341
11282
11273
11312
11405
11546
11588
11643
11780
11961
12169
12242
12293
12299
12285
12291
12307
12352
12418
12467
12479
12530
12560
12595
12660
12729
12859
12826
12733
12665
12668
12658
12302
12058
11794
11481
11187
10963
10926
10942
10937
10894
10941
11337
11460
11582
11716
11868
12195
12383
12520
12581
12600
12638
12703
12687
12671
12631
12585
12493
12438
12393
12347
12308
12323
12395
12473
12538
12614
12689
12676
12627
12522
12409
12257
11824
11562
11359
11261
11245
11316
11548
11674
11837
11934
11983
12091
12155
12239
12302
12325
12298
12271
12219
12117
11985
11877
11839
11870
11966
12084
12189
12280
12278
12274
12277
12311
12374
12459
12477
12546
12621
12648
12656
12586
12469
12317
12155
11979
11700
11635
11585
11518
11462
11180
11149
11249
11433
11649
12128
12299
12411
12499
12583
12639
12717
12718
12648
12520
12380
12208
12192
12187
12152
12118
12131
12222
12234
12234
12200
12149
12210
12321
12394
12463
12545
12389
12176
11893
11571
11325
11104
11024
11181
11370
11413
11271
11249
11442
11651
11898
12140
12350
12517
12506
12491
12476
12494
12458
12396
12369
12393
12451
12494
12482
12461
12449
12462
12459
12451
12451
12460
12447
12425
12365
12292
12205
12141
12069
11998
12028
12063
12055
12035
12027
12024
12018
11989
11954
11952
12006
12212
12228
12208
12187
12154
12044
11980
11941
11948
11992
12045
12052
12013
11993
12011
12082
12310
12406
12540
12720
12892
12960
12881
12779
12642
12504
12346
12021
11839
11600
11352
11167
10991
10900
10816
10838
10955
11227
11378
11586
11862
12131
12325
12533
12587
12604
12611
12663
12824
12859
12900
12944
12924
12870
12735
12687
12660
12600
12496
12135
11937
11739
11548
11401
11337
11458
11512
11574
11657
11717
11870
11938
11988
11987
11965
11903
11925
11938
12018
12123
12216
12391
12459
12463
12426
12426
12478
12539
12571
12562
12501
12387
12060
11918
11758
11666
11699
11968
12087
12159
12186
12209
12256
12279
12294
12268
12217
12183
12181
12227
12276
12293
12294
12275
12298
12330
12368
12406
12429
12405
12365
12335
12331
12294
12075
11921
11807
11802
11873
11903
11889
11842
11782
11714
11700
11800
11854
11893
11915
11941
11998
11954
11851
11789
11854
12009
12349
12477
12569
12629
12657
12708
12722
12657
12552
12439
12311
12038
11996
11987
11945
11914
11839
11823
11863
11870
11837
11721
11628
11592
11598
11573
11518
11554
11672
11777
11867
11942
12029
12057
12148
12266
12392
12488
12568
12573
12531
12471
12401
12398
12421
12489
12537
12540
12431
12422
12423
12434
12429
12398
12366
12344
12320
12287
12226
12030
11914
11821
11708
11614
11574
11587
11613
11618
11621
11651
11843
11929
11976
12024
12143
12289
12482
12542
12574
12537
12418
12216
12283
12397
12455
12499
12575
12558
12493
12402
12296
12179
11984
11948
11957
11974
11990
11990
11958
11950
11975
12001
12013
11986
11992
12015
12038
12068
12116
12133
12142
12121
12073
11975
11923
11847
11777
11740
11726
11895
12021
12112
12192
12248
12325
12343
12377
12409
12442
12450
12462
12473
12442
12339
12206
11964
11818
11722
11715
11705
11762
11862
12000
12104
12130
12169
12290
12278
12199
12104
12001
11981
12052
12102
12070
12002
11975
12051
12115
12169
12220
12270
12335
12327
12290
12242
12201
12173
12162
12170
12180
12190
12185
12126
12096
12090
12083
12097
12107
12121
12148
12193
12263
12312
12368
12344
12314
12285
12249
12167
12132
12081
12045
12012
11993
12032
12022
11987
11985
12035
12028
11959
11969
12060
12166
12232
12188
12133
12122
12143
12182
12293
12332
12361
12392
12400
12296
12200
12069
11868
11684
11595
11617
11688
11770
11842
11918
12030
12066
12056
12032
12001
11952
11874
11922
12009
12099
12170
12281
12342
12447
12530
12580
12481
12407
12326
12257
12212
12217
12262
12302
12324
12328
12367
12352
12247
12127
11987
11860
11779
11722
11663
11585
11593
11649
11820
11930
12070
12178
12240
12286
12320
12395
12493
12487
12394
12221
12183
12194
12235
12257
12228
12217
12221
12205
12195
12203
12122
12045
12004
11994
11985
12065
12156
12233
12242
12197
12122
11991
11947
11964
11981
11963
11934
11932
11978
12069
12149
12269
12364
12411
12415
12417
12402
12252
12167
12161
12143
12103
12037
12038
12106
12210
12287
12285
12213
12167
12067
11902
11753
11659
11688
11730
11749
11726
11690
11715
11752
11823
11890
11955
12034
12118
12224
12342
12455
12592
12634
12664
12661
12597
12513
12409
12360
12305
12229
12124
11968
11954
11983
12076
12179
12335
12378
12363
12299
12177
12083
11987
11936
11893
11843
11804
11757
11707
11713
11797
11871
11902
11941
11948
11953
11992
12087
12342
12425
12444
12481
12559
12580
12448
12442
12416
12416
12432
12445
12398
12290
12147
12045
12013
12023
12052
12069
12084
12047
11954
11944
11919
11868
11821
11758
11615
11512
11525
11573
11640
11946
12019
12026
12023
12070
12119
12127
12110
12114
12187
12287
12305
12350
12420
12476
12532
12713
12768
12784
12747
12691
12544
12455
12383
12275
12127
12006
11954
11958
11942
11944
11964
11934
11880
11804
11707
11689
11833
11923
12030
12090
12099
12022
11899
11980
12057
12083
12078
12041
12037
12017
11975
11967
12039
12167
12207
12267
12317
12375
12488
12535
12582
12600
12588
12555
12470
12359
12225
12125
12058
11850
11799
11808
11801
11755
11851
11915
11906
11863
11821
11833
11804
11824
11899
11982
12030
12140
12224
12275
12321
12333
12335
12341
12366
12376
12331
12264
12024
11934
11918
11956
12010
12092
12058
12000
11950
11870
11780
11692
11762
11870
11964
12049
12327
12400
12493
12603
12657
12669
12621
12520
12392
12285
12253
12183
12172
12216
12276
12299
12267
12118
12011
11970
11992
12070
12214
12222
12198
12153
12124
12120
12139
12157
12145
12097
11994
11727
11589
11502
11503
11579
11790
11883
11977
12085
12176
12234
12287
12299
12274
12235
12207
12274
12290
12328
12379
12411
12448
12406
12340
12279
12250
12262
12291
12170
12027
11946
11905
11860
11871
11825
11784
11811
11893
12044
12122
12214
12311
12405
12451
12527
12592
12556
12409
12188
11593
11410
11304
11250
11284
11583
11781
12049
12287
12445
12594
12592
12629
12682
12647
12553
12278
12150
12017
11948
12005
12173
12206
12236
12274
12334
12393
12421
12332
12216
12130
12125
12203
12130
12058
12029
11939
11730
11703
11687
11670
11686
11710
11725
11730
11742
11810
11917
12177
12312
12408
12440
12397
12284
12032
12055
12122
12161
12215
12220
12252
12355
12407
12346
12152
12079
12084
12096
12114
12162
12184
12232
12275
12325
12396
12483
12438
12310
12162
11970
11745
11647
11707
11799
11927
12052
12265
12323
12344
12304
12272
12298
12227
12202
12212
12235
12237
12195
12218
12221
12164
12079
12012
12016
12002
11986
11961
11970
12036
11994
11932
11855
11761
11784
11953
12119
12174
12150
12117
12155
12206
12190
12113
11995
11843
11844
11946
12068
12199
12450
12567
12646
12668
12657
12618
12531
12414
12209
12045
11939
11700
11644
11683
11775
11881
11971
12109
12164
12249
12366
12468
12522
12525
12518
12443
12335
12269
12207
12081
11930
11812
11808
11762
11724
11744
11855
11972
12090
12141
12227
12263
12253
12189
12102
12009
11948
11938
11934
11915
11853
11694
11562
11578
11740
12247
12448
12582
12649
12623
12426
12326
12251
12203
12182
12107
12081
12131
12243
12362
12449
12466
12417
12347
12298
12281
12240
12090
11924
11779
11660
11625
11693
11762
11822
11861
11902
11940
12007
12069
12111
12163
12231
12259
12271
12292
12252
12180
12060
12039
12090
12125
12107
12162
12272
12330
12339
12361
12429
12546
12508
12437
12317
12200
12071
12031
12011
12018
12038
12029
11854
11884
11951
12036
12112
12145
12135
12129
12094
12027
11865
11795
11799
11811
11856
11930
12052
12040
12065
12089
12121
12153
12143
12136
12161
12177
12169
12175
12169
12188
12234
12307
12395
12420
12421
12369
12270
11991
11874
11903
12042
12198
12271
12258
12218
12196
12158
12136
12150
12168
12152
12078
11944
11839
11931
12093
12233
12318
12374
12502
12549
12515
12451
12352
12211
11913
11799
11699
11658
11648
11643
11748
11908
12081
12269
12472
12490
12528
12544
12444
12250
11883
11767
11723
11755
11785
11951
12108
12246
12300
12266
12241
12061
11987
11912
11828
11785
11737
11796
11947
12071
12162
12435
12563
12580
12522
12475
12409
12099
11888
11706
11651
11744
12059
12196
12332
12423
12452
12470
12508
12484
12436
12391
12352
12163
12061
11975
11927
11913
11897
11912
11946
11982
12003
12026
12061
12093
12188
12288
12277
12092
12074
12083
12050
12014
11982
11980
12066
12123
12165
12247
12367
12353
12338
12329
12282
12204
11959
11904
11910
11912
11911
11962
12059
12197
12338
12455
12434
12405
12415
12469
12503
12525
12527
12459
12349
12249
12121
11815
11692
11613
11652
11766
11816
11596
11492
11396
11308
11262
11538
11769
12004
12177
12277
12352
12404
12450
12444
12419
12416
12474
12472
12418
12338
12300
12284
12299
12298
12225
12087
11975
11838
11821
11847
11928
12047
12159
12168
12160
12154
12141
12081
12142
12204
12249
12298
12328
12324
12347
12358
12362
12375
12416
12415
12393
12350
12264
12105
11788
11718
11683
11709
11804
12002
12055
12014
11957
11970
12031
12180
12269
12289
12267
12260
12256
12254
12237
12223
12270
12432
12523
12631
12707
12685
12596
12325
12143
11959
11797
11694
11681
11721
11725
11717
11729
11655
11405
11394
11372
11321
11358
11766
12085
12403
12650
12850
13007
12930
12804
12647
12432
12216
11886
11807
11799
11786
11762
11678
11680
11762
11900
12040
12194
12382
12391
12381
12404
12452
12590
12630
12694
12775
12829
12842
12644
12443
12251
12126
12028
11823
11718
11618
11537
11505
11527
11556
11645
11735
11742
11699
11572
11525
11559
11635
11717
11967
12104
12215
12370
12530
12646
12760
12815
12861
12922
12975
12873
12781
12672
12566
12442
12275
12230
12154
12024
11862
11762
11596
11551
11491
11347
11198
11168
11295
11405
11557
11763
11968
12328
12431
12513
12584
12630
12637
12648
12690
12733
12734
12706
12654
12627
12572
12490
12413
12326
12263
12198
12118
11989
11689
11547
11415
11346
11366
11441
11520
11591
11580
11548
11570
11726
11823
11920
12000
12082
12188
12504
12675
12878
13045
13097
12963
12899
12807
12653
12450
12184
12137
12144
12123
12059
11960
11686
11505
11334
11204
11104
11205
11533
11926
12267
12501
12647
12683
12578
12497
12407
12263
11961
11892
11882
11884
11872
11897
11951
12050
12154
12301
12514
12797
12800
12732
12651
12558
12340
12247
12132
12030
11942
11860
11760
11790
11794
11764
11719
11688
11686
11752
11911
12106
12288
12490
12470
12410
12292
12196
12190
12185
12163
12141
12072
11959
11995
12037
12045
12047
12031
11902
11852
11800
11796
11833
11903
11897
11901
11966
12067
12158
12234
12300
12385
12477
12549
12562
12522
12477
12434
12393
12389
12435
12509
12619
12744
12859
12921
12876
12791
12673
12548
12171
11912
11670
11417
11101
10805
10611
10648
10750
10837
10948
11361
11587
11844
12110
12360
12744
12803
12820
12799
12774
12751
12603
12517
12401
12255
12129
12296
12498
12681
12795
12872
12881
12686
12620
12542
12416
12249
11625
11267
11006
10904
11064
11313
11755
11899
11980
12015
12105
12378
12480
12537
12539
12440
11910
11687
11570
11576
11602
11543
11417
11395
11526
11709
11858
12118
12252
12353
12409
12465
12501
12379
12318
12277
12237
12216
12331
12392
12479
12587
12643
12628
12515
12468
12432
12376
12324
12254
12175
12068
11969
11867
11648
11615
11720
11887
12003
12087
12248
12344
12412
12489
12591
12883
13074
13243
13337
13359
13354
13080
12756
12360
11995
11603
10762
10518
10432
10477
10574
10942
11229
11442
11733
12050
12213
12047
12011
12008
11975
11931
11846
12007
12308
12584
12729
12761
12749
12845
12953
12953
12919
12563
12240
12078
12049
12091
12086
11967
11856
11782
11647
11470
11320
11289
11276
11327
11392
11670
11947
12236
12323
12240
12073
11741
11513
11343
11332
11454
11751
11938
12257
12624
12917
13156
13422
13412
13346
13372
13462
13336
13124
12853
12558
12249
12167
12256
12222
12089
11905
11712
11474
11469
11364
11218
11155
11247
11243
11156
11062
11104
11297
11734
11976
12284
12632
12937
13172
13060
13009
13150
13376
13450
13277
13119
12911
12754
12691
12747
12755
12759
12617
12229
11359
11011
10838
10956
11328
11723
11776
11424
11036
10678
10385
10367
10644
10973
11127
11092
10991
11184
11533
11764
11848
11932
12323
12634
12883
13046
13076
12790
12697
12601
12586
12679
12907
13507
13799
14047
14182
14287
14268
14164
13974
13652
13241
12643
11304
10718
10230
9816
9596
9590
9778
10255
10933
12123
12611
12817
12738
12517
12115
12140
12316
12338
12171
11568
11149
10820
10596
10492
10397
10326
10642
11069
11493
11977
12850
13160
13456
13696
13734
13648
13482
13310
13045
12880
12948
13443
13700
13944
14060
14041
14022
13557
13109
12824
12611
12272
10835
10046
9450
8965
8560
8209
7956
7921
8271
8950
9663
10355
10985
11635
12416
12740
13076
13331
13541
13815
13848
13800
13789
14002
14819
15481
15916
15991
15759
15370
14138
13358
12562
11688
10813
9225
8469
7891
7633
7563
7783
8524
9577
10670
11657
12453
12981
13238
13067
12882
12710
12580
12397
11567
11137
11065
11377
11808
12200
12889
13068
13251
13510
13911
14393
14379
14334
14217
13920
13472
12128
11741
12093
12998
14008
14117
13551
13028
12518
11957
11520
11068
10606
9731
8538
7319
6472
6079
5930
5795
6228
7533
9333
10974
11999
13232
13677
14122
14464
14667
15135
15317
15435
15413
15268
15187
15882
16108
15940
15382
14784
13618
12948
12200
11464
10571
9341
8335
8163
8693
9812
10318
11068
11795
12186
12351
12274
12149
11564
10840
10215
9636
9254
9365
9955
10606
11204
11234
11301
11465
11725
12164
12695
13568
14257
14492
14340
13886
13699
13440
13159
12796
12224
12731
13602
14324
14887
15439
15421
15300
15024
14615
14040
11954
10388
8892
8090
7875
8056
8424
8710
9341
10344
11151
11884
12603
12627
12433
12026
11774
12191
12611
13126
13497
13598
13274
11180
10218
9717
9230
8933
9174
9906
10788
11564
12262
13260
13612
13831
13846
13679
13159
13368
13536
13462
13358
15099
16314
16588
16079
15254
14382
13102
12836
12956
12812
12078
8541
7095
6458
6517
6655
7069
8400
10035
11360
12094
12440
12426
12149
12368
12948
13512
13511
13462
13420
13030
12758
12744
12924
13252
13323
13525
13546
12944
10874
9583
8408
7937
7944
8398
9550
11108
12320
13296
14642
16275
16272
15892
15197
14425
13694
12129
10895
9500
8065
6992
6459
6551
7268
8090
8750
9695
11237
12849
14791
15191
15324
15336
15603
16035
16765
17888
19580
20938
21195
18862
17069
15005
12982
11581
10489
8036
6042
3487
728
8
8
8
8
9
9
924
924
3429
5956
8182
10232
13416
14383
15319
16161
16546
16696
17399
17488
17312
16704
15848
14007
13080
12276
11777
11367
11277
11329
11217
11737
13403
15036
15274
14815
13995
12863
11833
10722
10314
9978
9526
8886
8295
8003
8543
10048
12288
14422
16734
17016
16951
16641
16067
15063
12352
10911
9275
7506
5770
4706
4495
5047
6744
9686
12471
14260
14854
14500
13842
12953
12215
11954
11414
11664
12386
13271
14073
14743
14879
14812
14411
13681
12605
10536
9637
9220
9299
9592
10196
11705
13208
13962
14189
14344
14380
13843
12838
10855
10282
10546
11313
12066
12735
12579
11951
10986
10106
9713
9700
10044
11021
11226
11611
12482
13667
14916
14931
14890
14521
13731
12533
9375
8362
7974
7928
8693
10046
11447
12862
14031
14652
14887
15276
15964
16525
16650
16218
15697
14936
13912
12629
9546
7791
6127
4797
3733
3271
3854
5420
7889
10981
13513
15702
17767
19175
18868
17783
16557
15174
13348
10911
8144
7434
6685
7077
9440
12334
14827
16224
16466
15180
14190
13129
12047
10864
9440
7827
6423
5660
5776
6508
8833
10477
11991
13120
13803
14151
14314
15024
15480
15908
16467
17056
16999
16619
16030
15211
14119
13007
10783
9709
9034
9072
9606
10557
11879
12983
13402
12252
11555
11058
10671
10653
12044
11999
11307
10564
10282
11580
12919
13706
13809
13509
12836
11232
11018
11478
12568
13378
12547
11748
11117
10708
10588
10502
9916
9596
9362
8906
8490
8174
8311
9211
10598
11859
12745
13329
13891
14475
15480
16364
16996
17572
19155
19696
19879
19323
17973
13424
10940
8641
6767
5408
4451
3494
2361
1683
2561
4927
8296
12344
15574
17450
18269
17750
16926
15948
14963
12891
11032
9415
8599
8260
8663
9586
10769
11830
12377
11952
11002
9609
8316
7929
8925
10606
12322
13741
15703
16165
16176
15906
15388
14670
12485
11646
10864
10194
9893
10086
12378
14274
16282
17447
17561
17063
15653
14984
14239
13234
11841
7668
5446
4022
3747
4753
6542
8587
10544
12047
12918
13243
13132
11723
10990
11257
13056
15258
19886
21015
21046
20370
19279
17764
12385
9404
6785
4233
2011
668
490
1246
2833
5177
7714
10032
11875
13115
13859
14315
15054
15588
16075
16423
16434
16344
16464
16784
16858
16395
15406
12938
11700
10552
9429
8768
8935
9402
9671
10087
10782
12388
12945
13111
12864
12255
10331
9468
9212
9688
10268
10885
11752
12764
13850
13865
13876
13786
13544
13163
12036
11569
11352
11485
11914
13776
14568
15030
15368
15540
15297
14241
13621
12960
11996
10608
6803
5806
5218
5224
6064
7630
9727
11795
13216
13792
13907
13903
13824
13628
13594
13996
14706
15403
15066
14543
14058
13537
12891
11576
10953
9996
9217
8999
9023
9333
9988
10777
11467
11712
11246
11100
11148
11195
11082
11418
11937
12551
13048
13255
13090
13294
13625
13865
13913
13863
13664
13797
13913
14108
14333
13960
13244
12374
11602
11084
11290
15939
18772
19999
19839
19052
16917
15487
13639
10927
6959
2234
7
8216
20965
21127
5267
9
1232
5782
9461
11639
12751
13314
13454
13337
13150
12689
12142
11635
10882
9012
9340
10311
11230
11808
12340
12843
13571
13904
14224
14490
14588
14550
14702
14721
14335
13664
12912
11570
11058
10777
10357
9611
8773
8315
8290
8349
8396
8674
9346
10080
11180
11948
12600
12979
13172
13622
14002
14410
15176
15977
15858
15558
15132
14755
14227
13440
10681
9138
7926
7171
6833
7154
8291
9542
10432
11054
11364
11561
12627
13212
13476
13483
13379
12849
12546
12293
12032
11650
11360
11719
12158
12545
12617
12508
12867
13082
13216
13235
13334
13492
13431
13149
12594
12297
12297
11843
11217
10653
10201
9565
9133
9323
9865
10531
11602
11941
12192
12334
12576
13347
13643
13761
13764
13732
13781
13594
13223
12849
12517
12155
11465
11198
11054
11105
11224
11363
11359
11499
11869
12133
12201
12299
12360
12427
12459
12452
12262
12188
12080
11889
11678
11634
11964
12082
12096
12062
12001
11945
11989
12023
12100
12209
12237
12261
12307
12318
12309
12276
12452
12860
13260
13430
13389
13118
13014
12844
12544
12262
12055
11166
10550
9879
9430
9652
10320
10845
11197
12107
12521
12757
12856
12886
12912
12801
12575
12297
11980
11665
11360
11444
11610
11850
12105
12354
12421
12477
12507
12520
12499
12400
12351
12319
12298
12292
12237
12222
12232
12271
12332
12537
12566
12625
12766
12896
13018
13037
12976
12847
12647
12280
11255
10868
10653
10690
10794
10910
11078
11086
11142
11316
11546
11939
12042
12083
12124
12223
12408
12417
12367
12342
12346
12272
12217
12324
12396
12410
12392
12368
12388
12423
12455
12463
12440
12367
12376
12357
12276
12189
12076
12082
12134
12202
12300
12340
12274
12226
12247
12300
12310
12102
11966
11832
11735
11748
12207
12375
12410
12428
12352
12181
11738
11560
11468
11412
11288
11195
11260
11344
11543
11924
12370
12787
12821
12773
12755
12748
12524
12378
12232
12051
11813
11679
11669
11620
11632
11717
11830
12038
12157
12245
12301
12319
12237
12133
12016
11980
12028
12076
12207
12344
12476
12567
12606
12612
12600
12556
12482
12395
12195
12080
11984
11904
11849
11839
11919
11983
12034
12096
12172
12264
12266
12257
12241
12213
12193
12156
12138
12145
12160
12170
12080
12041
12030
12024
12011
12059
12063
12045
12049
12078
12085
12079
12098
12133
12182
12203
12183
12137
12094
12090
12204
12352
12451
12418
12350
12265
12195
12151
12130
12177
12283
12366
12373
12295
12333
12393
12389
12299
12015
11927
11873
11779
11650
11418
11306
11229
11176
11225
11374
11770
11960
12059
12094
12060
12091
12211
12299
12342
12350
12352
12380
12401
12409
12423
12432
12516
12561
12598
12597
12613
12758
12762
12724
12689
12668
12626
12319
12101
11864
11601
11370
11188
11200
11276
11390
11473
11580
11812
11934
12056
12178
12284
12408
12403
12408
12432
12437
12453
12504
12502
12480
12440
12406
12300
12213
12114
12051
12000
11800
11703
11694
11741
11733
11672
11813
11987
12165
12246
12230
12202
12177
12170
12245
12428
12625
12782
12756
12641
12485
12357
12215
12204
12254
12291
12273
12256
12285
12334
12340
12276
12130
11560
11202
10862
10610
10488
10634
10789
11067
11448
11832
12149
12503
12598
12665
12689
12728
12762
12714
12649
12581
12505
12447
12372
12312
12267
12207
12165
12258
12358
12462
12555
12664
12739
12730
12713
12615
12464
12315
12050
11956
11903
11831
11748
11602
11456
11322
11278
11307
11414
11727
11816
11911
12029
12129
12211
12259
12321
12386
12430
12423
12386
12385
12391
12398
12379
12400
12420
12388
12334
12315
12282
12248
12200
12139
12076
11990
11757
11677
11692
11698
11681
11764
11814
11780
11675
11626
11819
11908
11953
11997
12061
12127
12201
12251
12306
12329
12347
12370
12392
12391
12391
12387
12407
12421
12460
12472
12465
12455
12450
12439
12374
12259
12173
12148
11977
11830
11733
11659
11592
11515
11490
11565
11689
11813
12066
12160
12214
12273
12347
12434
12503
12487
12451
12385
12291
12004
11922
11890
11909
11965
12049
12168
12191
12206
12213
12216
12194
12156
12088
12014
11980
12002
12044
12099
12139
12177
12223
12236
12172
12125
12098
12081
12087
12070
12073
12104
12155
12213
12319
12356
12399
12437
12452
12278
12204
12146
12093
12044
11985
11861
11833
11810
11751
11743
11972
12052
12093
12127
12169
12173
12135
12118
12126
12125
12109
12080
12077
12113
12171
12231
12292
12331
12369
12417
12468
12539
12562
12545
12540
12540
12491
12300
12175
12047
11913
11755
11555
11469
11435
11453
11497
11600
11776
11861
11903
11862
11795
11976
12200
12369
12433
12421
12332
12023
11871
11770
11795
11873
12036
12102
12147
12147
12147
12264
12345
12392
12421
12440
12436
12406
12438
12492
12577
12662
12710
12704
12704
12695
12642
12515
12205
12062
11869
11610
11399
11163
11065
11019
11080
11220
11348
11506
11629
11800
11970
12112
12388
12491
12573
12608
12613
12646
12656
12656
12650
12670
12692
12692
12660
12598
12516
12430
12213
12093
11936
11791
11650
11525
11456
11455
11488
11609
11745
11864
11928
12006
12065
12118
12206
12256
12306
12333
12332
12350
12351
12323
12307
12305
12323
12262
12171
12118
12119
12128
12130
12124
12143
12163
12202
12231
12180
12145
12148
12132
12108
12092
12125
12160
12165
12141
12133
12075
12052
12088
12102
12063
11985
11952
11947
12000
12073
12136
12217
12265
12296
12300
12276
12194
12148
12104
12042
11978
11931
11848
11846
11907
11982
12021
11924
11887
11862
11894
11951
12041
12080
12106
12120
12110
12078
12083
12159
12255
12316
12321
12335
12362
12357
12311
12281
12263
12212
12171
12103
12025
11966
12078
12172
12255
12283
12281
12310
12321
12289
12209
12110
11959
11646
11680
11806
11890
11929
12075
12200
12295
12329
12332
12321
12202
12088
12026
12011
11971
11931
12041
12187
12293
12350
12354
12283
12236
12234
12289
12376
12471
12466
12410
12360
12307
12177
12085
11985
11893
11805
11750
11644
11582
11589
11652
11694
11756
11811
11903
12002
12080
12137
12229
12270
12328
12375
12392
12374
12341
12280
12205
12143
12121
12132
12193
12283
12358
12401
12404
12376
12337
12319
12312
12249
12179
12106
12023
11935
11856
11817
11856
11890
11945
12014
12066
12028
11993
11971
11938
11884
11894
11998
12127
12214
12273
12320
12325
12318
12285
12266
12205
12140
12109
12199
12312
12372
12446
12397
12340
12292
12230
12087
12018
11932
11834
11765
11712
11547
11549
11634
11730
11815
12025
12170
12301
12377
12406
12409
12450
12459
12429
12353
12224
11986
11924
11914
11935
11965
12085
12109
12099
12054
12034
12026
12004
11993
12018
12075
12154
12286
12327
12356
12391
12438
12464
12474
12424
12358
12229
12052
11786
11745
11784
11866
11958
12125
12127
12119
12134
12140
12125
12175
12213
12258
12324
12392
12389
12376
12352
12240
12059
11905
11930
12010
12075
12086
12073
12044
12084
12133
12158
12187
12225
12199
12181
12189
12220
12252
12231
12239
12274
12289
12247
12200
12114
11976
11818
11642
11385
10821
10761
10858
11142
11565
12456
12799
13086
13260
13267
13052
12935
12816
12597
12297
12033
11825
11882
11978
12119
12267
12190
12081
11990
11966
12032
12157
12340
12313
12252
12164
12045
11891
11934
11987
11934
11894
11960
12035
12115
12219
12254
12133
11952
11994
11970
11855
11747
11800
11834
11845
11880
11985
12129
12413
12493
12542
12519
12473
12378
12294
12188
12088
12054
12050
12109
12070
12032
12065
12119
12170
12191
12202
12215
12248
12269
12169
12050
11942
11916
11843
11441
11477
11566
11678
11772
11857
11957
12084
12174
12222
12294
12327
12318
12359
12454
12538
12685
12702
12672
12584
12488
12541
12471
12412
12365
12245
12113
11893
11820
11779
11710
11659
11569
11622
11741
11860
11935
11975
12036
12101
12181
12272
12338
12324
12268
12198
12121
12038
11978
11837
11735
11649
11599
11592
11644
11718
11847
11992
12115
12367
12468
12589
12686
12740
12799
12885
12914
12903
12858
12827
12781
12731
12680
12644
12563
12422
12176
12092
12011
11889
11737
11349
11206
11120
11127
11199
11407
11546
11709
11834
11966
12115
12388
12511
12615
12646
12643
12549
12399
12260
12176
12055
11904
11855
11847
11849
11881
11920
11857
11835
11852
11885
11837
11787
11850
11909
11962
12016
12044
12063
12081
12102
12129
12157
12194
12227
12268
12276
12258
12332
12592
12717
12773
12755
12676
12574
12603
12583
12513
12425
12312
12171
12096
11983
11866
11749
11556
11417
11274
11154
11142
11222
11304
11439
11602
11779
11993
12543
12829
13081
13258
13348
13214
13018
12854
12717
12557
12364
11968
11861
11820
11812
11818
11706
11645
11661
11706
11813
12033
12379
12430
12405
12322
12259
12150
12109
12068
11998
11944
11907
11958
11993
11998
12031
12092
12206
12191
12159
12143
12103
11920
11816
11753
11690
11647
11678
11755
11706
11651
11681
11723
11777
11903
12096
12285
12451
12658
12670
12671
12655
12651
12675
12856
12883
12840
12759
12683
12570
12460
12360
12307
12232
12141
12053
11917
11811
11730
11620
11594
11557
11488
11490
11544
11762
11937
12099
12230
12348
12498
12708
12703
12659
12560
12406
12055
11915
11771
11720
11766
11818
11910
11807
11619
11407
11258
11088
11043
11069
11153
11274
11434
11860
12136
12479
12809
13110
13488
13645
13782
13863
13899
13875
13799
13592
13315
13026
12685
12001
11751
11573
11484
11446
11426
11398
11345
11285
11241
11206
11132
11220
11366
11486
11571
11869
12041
12169
12218
12239
12312
12352
12333
12243
12189
12227
12175
12044
12016
12051
12043
11892
11833
11832
11846
11895
11937
12003
12016
12054
12059
12073
12211
12305
12426
12535
12557
12551
12649
12741
12773
12685
12543
12090
11785
11507
11318
11211
11169
11306
11564
11809
11994
12135
12328
12320
12299
12379
12516
12748
12751
12773
12816
12897
12945
12841
12720
12577
12452
12269
11915
11801
11748
11817
11899
12013
12035
12005
11975
11955
11950
11914
11941
11995
12010
12002
11870
11588
11313
11206
11286
11460
11628
11577
11510
11568
11748
12153
12325
12444
12509
12550
12622
12774
12999
13214
13340
13439
13422
13271
13113
12781
12248
11505
11521
11608
11612
11607
11652
11613
11469
11258
11092
11038
11254
11382
11498
11546
11544
11540
11632
11763
11873
11987
12129
12478
12607
12680
12734
12791
12782
12820
12833
12781
12718
12652
12532
12494
12472
12475
12543
12508
12566
12679
12766
12788
12692
12222
12008
11842
11681
11579
11615
11708
11819
11917
12016
12067
12095
12141
12181
12213
12223
12117
12029
11969
11922
11875
11832
11810
11751
11674
11663
11666
11519
11403
11346
11393
11518
11889
11992
12084
12229
12348
12371
12473
12630
12799
12907
12941
13028
13098
13145
13093
12940
12462
12182
11845
11532
11327
11170
10835
10879
11044
11209
11450
12090
12426
12599
12560
12453
12356
12530
12725
12932
13024
12987
12678
12465
12282
12117
11957
11795
11749
11705
11707
11734
11770
11832
11866
11913
11941
11976
12066
12059
12037
12033
12032
12030
12079
12112
12141
12182
12231
12233
12216
12211
12232
12229
12130
12022
11905
11873
11993
12172
12376
12382
12347
12299
12235
11963
11927
11955
12005
12032
12112
12170
12128
12028
11899
11756
11406
11320
11371
11507
11642
11770
12120
12161
12047
11985
12123
12594
12791
12961
13060
13085
13027
12961
12842
12655
12484
12405
12394
12356
12370
12439
12491
12553
12592
12644
12604
12388
12047
11562
11440
11354
11280
11178
10893
10685
10569
10623
10747
11750
12351
12806
13097
13335
13520
13598
13472
13333
13198
12986
12352
12000
11697
11477
11369
11330
11411
11501
11599
11655
11655
11771
11860
11884
11930
12015
12062
11961
11912
11928
11973
12034
12155
12188
12205
12141
12071
12130
12166
12175
12197
12220
12270
12354
12378
12381
12362
12359
12295
12314
12357
12342
12254
12100
11909
11931
12015
12097
12148
12155
12145
12154
12161
12161
12252
12320
12355
12335
12257
12120
11817
11805
11849
11885
11842
11800
11816
11827
11833
11858
11820
11761
11794
11836
11871
11940
12058
12126
12261
12440
12609
12738
12908
12924
12908
12930
12991
13062
13046
12975
12879
12760
12455
12208
11896
11554
11192
10927
10965
11089
11256
11429
11579
11685
11638
11618
11684
11805
11938
12004
12010
12034
11989
11918
12010
12125
12233
12320
12376
12346
12388
12425
12437
12458
12506
12742
12868
12940
12979
13032
12984
12869
12715
12538
12353
12194
12093
12081
12000
11922
11951
12023
11929
11787
11604
11404
11209
11322
11438
11516
11523
11499
11726
11855
11945
12027
12120
12269
12350
12441
12530
12568
12554
12467
12406
12325
12221
12129
11904
11819
11816
11859
11936
12058
12280
12320
12332
12307
12261
12102
11943
11744
11615
11604
11866
12003
12121
12173
12169
12201
12216
12108
12062
12119
12167
12199
12205
12201
12196
12193
12200
12239
12244
12265
12289
12291
12199
12136
12081
12025
11995
11949
11998
12111
12213
12276
12278
12272
12212
12101
11946
11831
11707
11761
11866
11976
12054
12110
12210
12252
12292
12346
12401
12455
12496
12499
12466
12410
12356
12195
12134
12047
11883
11728
11577
11578
11609
11665
11746
11935
11923
11906
11938
11961
11989
12234
12481
12741
12949
13092
13231
13151
13027
12823
12589
12393
12083
12006
11943
11834
11680
11458
11483
11554
11690
11853
12115
12170
12186
12216
12256
12277
12225
12220
12231
12220
12156
12000
11917
11890
11918
11950
11986
12055
12105
12123
12094
12038
11713
11433
11347
11441
11582
11822
11930
12037
12120
12189
12260
12396
12468
12540
12584
12597
12582
12545
12521
12503
12472
12435
12359
12315
12236
12149
12131
12151
12116
11999
11844
11735
11685
11725
11741
11746
11754
11787
11900
11951
12025
12128
12231
12339
12370
12425
12491
12534
12521
12387
12282
12160
12098
12082
11995
11936
11862
11803
11727
11674
11743
11830
11909
11999
12102
12241
12274
12300
12281
12266
12462
12572
12627
12603
12480
12282
11775
11634
11608
11630
11611
11509
11559
11656
11746
11842
11947
12103
12172
12248
12325
12383
12353
12267
12209
12226
12265
12345
12605
12793
12979
13151
13243
12932
12708
12584
12504
12445
12166
11982
11807
11695
11663
11676
11692
11748
11893
12067
12181
12202
12116
11989
11809
11669
11533
11574
11787
11951
12019
12018
11905
11866
11891
11959
12031
12135
12218
12297
12343
12356
12360
12370
12368
12344
12311
12274
12229
12221
12219
12207
12175
12163
12154
12151
12160
12167
12185
12157
12111
12070
12021
11917
11753
11704
11703
11733
11798
11906
12031
11991
11940
11916
11914
11972
12030
12103
12193
12241
12256
12250
12194
12164
12090
11995
11919
11866
11878
11994
12158
12315
12468
12552
12611
12630
12608
12564
12554
12529
12475
12373
12369
12401
12399
12385
12346
12284
11982
11831
11758
11727
11734
11810
11850
11897
11938
11952
11942
11931
11958
12021
12059
12073
12073
12120
12176
12219
12191
12016
11926
11889
11903
11975
12046
12104
12103
12087
12071
12057
12080
12079
12094
12126
12170
12217
12313
12345
12388
12421
12444
12421
12396
12340
12260
12166
12064
12011
12040
12048
12029
12004
11971
12008
12013
11917
11845
11729
11733
11799
11862
11935
12021
12143
12170
12200
12224
12252
12235
12217
12200
12196
12223
12258
12288
12296
12307
12293
12267
12111
11960
11823
11759
11701
11762
11895
12016
12145
12268
12367
12466
12477
12497
12515
12523
12502
12488
12438
12383
12382
12393
12267
12126
12034
12021
12050
12137
12168
12133
12024
11894
11778
11594
11601
11679
11789
11900
11976
11968
11993
12029
12051
12127
12154
12181
12186
12184
12178
12197
12206
12217
12207
12186
12165
12160
12169
12190
12195
12203
12149
12137
12147
12162
12155
12128
12098
12055
12028
12017
11969
11927
11896
11907
11974
12048
12136
12176
12203
12219
12213
12194
12179
12185
12185
12179
12182
12144
12120
12126
12144
12172
12282
12310
12284
12186
12070
11819
11832
11926
12001
12068
12131
12218
12216
12231
12251
12209
12022
11917
11862
11866
11924
11975
12086
12147
12178
12171
12165
12144
12107
12110
12116
12100
12102
12140
12125
12074
12065
12096
12163
12188
12209
12222
12227
12281
12290
12290
12276
12227
12135
11940
11917
11956
12039
12123
12199
12198
12169
12143
12138
12141
12112
12097
12097
12072
12043
12076
12128
12155
12159
12140
12107
12080
12055
12059
12057
12058
12107
12129
12152
12169
12185
12192
12200
12204
12213
12224
12249
12271
12283
12300
12322
12351
12329
12296
12295
12280
12232
12156
12042
11987
11950
11931
11917
11822
11823
11871
11911
11923
11953
11962
11956
11962
11998
12053
12077
12081
12103
12112
12108
12082
12068
12072
12084
12099
12119
12213
12258
12305
12318
12306
12323
12338
12313
12265
12194
12024
11940
11886
11888
11950
12034
12079
12083
12149
12196
12179
12066
11977
11933
11928
11947
11962
11898
11908
11966
12040
12129
12245
12272
12328
12370
12398
12412
12421
12407
12396
12369
12320
12183
12106
12042
11980
11917
11905
11957
12014
12079
12148
12201
12254
12243
12189
12110
12045
11940
11896
11844
11837
11889
11979
12106
12170
12229
12243
12239
12253
12239
12218
12190
12149
12157
12166
12132
12110
12109
12125
12131
12172
12186
12177
12148
12059
12007
12001
12017
12022
12005
11953
12007
12076
12106
12070
12092
12084
12083
12108
12123
12110
12101
12078
12085
12103
12142
12189
12189
12186
12180
12173
12180
12165
12161
12152
12147
12129
12121
12121
12131
12153
12163
12162
12160
12162
