12174
12204
12172
12109
12006
11880
11680
11571
11459
11352
11254
11172
11194
11286
11343
11384
11448
11657
11798
11939
12060
12148
12200
12165
12137
12098
12061
12034
11850
11675
11526
11440
11394
11256
11215
11264
11384
11524
11658
11690
11680
11669
11684
11664
11555
11529
11546
11589
11637
11617
11639
11707
11776
11843
11869
11856
11858
11821
11745
11672
11621
11702
11793
11852
11850
11819
11689
11625
11591
11568
11593
11614
11580
11580
11606
11634
11657
11719
11759
11754
11706
11691
11787
11827
11881
11940
11943
11799
11724
11668
11663
11725
11835
12022
12015
11977
11896
11813
11739
11731
11693
11623
11616
11641
11555
11501
11493
11516
11536
11571
11576
11599
11610
11618
11713
11774
11784
11694
11585
11534
11603
11614
11590
11543
11490
11413
11460
11564
11693
11787
11778
11445
11369
11357
11337
11347
11593
11800
11998
12157
12310
12386
12290
12186
12098
12056
12004
11852
11751
11634
11524
11444
11439
11465
11526
11604
11618
11542
11407
11373
11381
11443
11514
11710
11789
11830
11847
11886
11938
12035
12072
12056
11998
11957
11937
11943
11957
11969
11937
11860
11829
11760
11686
11616
11518
11292
11233
11240
11266
11271
11224
11208
11268
11384
11501
11562
11648
11721
11802
11867
11887
11968
11945
11913
11882
11841
11802
11864
11912
11918
11879
11816
11610
11398
11247
11231
11270
11432
11498
11572
11643
11693
11765
11787
11813
11897
11998
12088
12250
12241
12191
12118
12039
11943
11805
11757
11683
11605
11570
11531
11492
11480
11474
11464
11485
11518
11550
11599
11639
11661
11625
11590
11536
11484
11499
11723
11781
11760
11752
11725
11681
11637
11579
11528
11485
11504
11558
11549
11579
11641
11699
11860
11917
11971
11987
11957
11920
11896
11892
11897
11908
11880
11891
11851
11775
11660
11553
11457
11392
11469
11599
11706
11767
11807
11851
11877
11864
11827
11722
11463
11403
11396
11421
11477
11553
11555
11503
11462
11489
11636
11694
11759
11867
12004
12080
12005
12000
11977
11887
11764
11558
11533
11572
11619
11654
11647
11649
11649
11646
11633
11638
11624
11664
11718
11740
11743
11697
11631
11565
11532
11575
11664
11876
11936
11969
11990
12006
11926
11863
11829
11824
11824
11817
11752
11717
11718
11708
11673
11561
11495
11424
11331
11285
11338
11434
11531
11566
11531
11465
11449
11443
11447
11454
11483
11527
11600
11719
11819
11901
11964
12055
12076
12093
12097
12106
12117
12066
11949
11825
11691
11552
11439
11452
11489
11506
11510
11522
11587
11700
11846
11933
11898
11911
11940
11962
11989
11969
11811
11741
11659
11617
11615
11586
11505
11459
11490
11538
11592
11578
11556
11603
11699
11793
11926
11967
11990
11960
11850
11699
11648
11576
11521
11527
11519
11428
11434
11495
11545
11582
11598
11528
11498
11492
11498
11537
11671
11700
11702
11703
11689
11612
11635
11654
11704
11772
11832
11912
11899
11874
11876
11903
12043
12071
11977
11849
11733
11589
11597
11590
11558
11542
11553
11685
11710
11704
11708
11725
11684
11647
11643
11694
11784
11889
12019
11989
11910
11774
11648
11664
11801
11962
11993
11901
11676
11583
11561
11596
11609
11614
11537
11552
11595
11662
11715
11818
11838
11794
11695
11548
11406
11116
11085
11126
11189
11226
11372
11458
11481
11493
11608
11723
11948
12033
12091
12109
12107
12017
11962
11926
11869
11830
11840
11877
11905
11902
11886
11866
11706
11619
11511
11378
11318
11413
11508
11620
11753
11832
11835
11621
11538
11505
11520
11567
11620
11590
11580
11632
11693
11817
11910
12008
12072
12101
12103
12037
12002
11893
11735
11649
11644
11671
11706
11718
11704
11708
11869
11916
11897
11835
11752
11543
11471
11430
11354
11288
11220
11247
11273
11341
11424
11490
11586
11671
11742
11771
11810
12012
12128
12159
12100
12015
11969
11864
11810
11748
11660
11598
11411
11380
11411
11404
11321
11281
11513
11718
11902
12012
12079
12008
11916
11807
11703
11606
11358
11344
11419
11503
11578
11695
11755
11683
11668
11679
11630
11534
11560
11592
11576
11529
11555
11726
11801
11799
11744
11710
11705
11646
11591
11571
11541
11464
11511
11638
11751
11843
11932
12015
12023
12066
12126
12140
12060
11982
11925
11900
11848
11781
11731
11735
11762
11727
11645
11375
11297
11226
11134
11053
11033
11098
11169
11233
11279
11350
11597
11707
11805
11913
12013
12201
12270
12320
12368
12360
12290
12104
11999
11855
11704
11630
11585
11546
11477
11388
11293
11230
11197
11197
11222
11266
11331
11443
11484
11561
11682
11875
12265
12352
12366
12299
12202
12124
12013
11980
11981
12004
11971
11872
11814
11739
11652
11651
11702
11487
11353
11275
11178
11083
11028
11074
11143
11198
11237
11202
11149
11153
11180
11210
11255
11407
11538
11675
11808
11897
12114
12144
12118
12072
12035
12000
11958
11995
12070
12161
12224
12233
12158
12062
11972
11884
11791
11570
11456
11410
11450
11476
11394
11425
11466
11473
11471
11501
11497
11475
11490
11508
11556
11611
11666
11736
11835
11920
11984
12001
12026
12025
11951
11867
11642
11547
11491
11476
11468
11484
11499
11585
11656
11734
12138
12310
12373
12377
12331
12264
12054
11939
11797
11617
11431
10977
10846
10827
10900
10979
11043
11080
11109
11144
11224
11355
11654
11707
11704
11732
11794
11863
11928
11896
11761
11556
11386
11346
11360
11380
11436
11500
11616
11672
11664
11626
11614
11683
11901
11964
12022
12076
12135
12202
12149
12080
12046
12024
12063
12166
12249
12351
12424
12473
12436
12322
12161
11968
11762
11287
11102
10992
10937
10934
10913
10826
10755
10704
10696
10766
11120
11283
11443
11598
11695
11794
11978
12091
12215
12325
12426
12562
12575
12604
12639
12585
12226
12046
11885
11754
11634
11524
11313
11182
11062
10951
10904
10834
10786
10767
10772
10831
10915
11124
11290
11404
11500
11632
11960
12115
12255
12397
12505
12515
12340
12270
12216
12173
12208
12446
12507
12550
12536
12401
11853
11499
11184
10921
10715
10571
10512
10569
10612
10659
10723
10827
10811
10841
10934
11120
11365
11878
12131
12343
12478
12570
12680
12734
12785
12818
12820
12578
12370
12160
11938
11769
11692
11608
11419
11257
11174
11071
10859
10747
10660
10668
10754
10854
11106
11324
11636
11944
12200
12586
12660
12669
12679
12649
12589
12345
12133
11903
11712
11551
11344
11297
11166
10915
10639
10680
10848
10938
11021
11221
11493
11878
11977
12080
12126
12083
12090
12166
12220
12223
12183
12072
11805
11805
11857
11880
11846
11856
11803
11673
11514
11445
11482
11538
11670
11837
11987
12049
11864
11801
11818
11879
11924
11603
11331
11093
10844
10514
10231
10097
10450
10801
11070
11319
11818
12098
12349
12506
12568
12561
12422
12323
12264
12204
12087
11892
11862
11850
11854
11884
11745
11641
11544
11344
11067
10770
10516
10530
10546
10601
10728
11050
11297
11615
11871
12029
12157
12253
12273
12269
12276
12314
12469
12563
12625
12666
12735
12979
13095
13149
13118
13006
12840
12409
12139
11831
11509
11201
10550
10175
9775
9370
9162
9143
9243
9463
9825
10273
10652
10959
11490
11641
11678
11694
11833
12267
12469
12570
12605
12612
12619
12613
12713
12852
12961
13103
13521
13646
13747
13701
13486
13281
12919
12471
11837
11225
10555
9344
9018
8852
8707
8677
8873
9213
9583
9936
10238
10489
10658
10884
11275
12156
12427
12567
12613
12533
12318
12303
12308
12336
12403
12569
12818
12799
12743
12591
12392
12255
12107
11904
11652
11427
11317
11177
10907
10625
10418
10438
11120
11367
11553
11600
11595
11802
11901
11974
12012
12048
12003
11685
11641
11678
11807
12020
12486
12612
12716
12869
13029
13164
13250
13092
12866
12647
12399
11412
10987
10654
10292
9829
9371
8922
8748
9121
9700
10145
10647
10839
10967
11077
11246
11580
11837
11986
12063
12158
12331
13091
13275
13355
13411
13426
13232
12956
12596
12312
12156
12333
12369
12320
12331
12374
12523
12395
12079
11832
11627
11350
10290
9828
9394
8937
8445
8006
7836
7889
8093
8379
8826
9367
9959
10706
11524
12315
12847
13413
13603
13664
13882
14196
14344
14222
14044
13852
13573
13197
12388
11870
11294
10761
10365
10120
10238
10337
10369
10398
10915
11446
11903
12175
12292
12385
12704
12917
13319
13690
13673
12771
12466
12348
12233
12055
11842
11553
11408
11350
11448
11591
12122
12197
12170
12165
12333
11872
11378
11201
11060
10598
9953
9275
8567
8377
9050
10331
10608
10907
11256
11466
11615
11639
11270
10821
10511
10481
11203
12179
13291
14405
15190
15534
15353
15303
15243
14918
14247
12395
11201
10124
9419
8782
8439
8648
9293
9825
10043
10152
10077
10198
10676
11519
12454
13490
13023
12415
12159
12355
12964
13660
13302
12724
11773
10589
8624
7808
7370
7596
8330
9174
9859
10435
11221
12424
13299
13530
12929
12439
12072
11721
11611
11681
10763
10322
10237
10353
10308
10601
11310
12256
13428
14647
16489
17110
17321
17435
17398
16888
15031
14317
13268
12045
10981
8829
7864
7087
6496
6385
6599
6740
6934
7360
7676
7682
7530
7731
8416
9268
9835
10352
11025
11679
12108
13147
14128
15048
15657
15997
16185
15928
15621
15400
15370
15408
14926
14250
13237
12015
10796
8810
8095
7742
8068
8678
8993
8931
9154
9723
10759
12301
13742
14616
15027
14159
13276
12631
12553
12571
12376
11164
9969
8713
7970
7680
7514
7808
8708
9834
10595
10844
10939
11584
12002
12494
13333
14299
15066
15883
15955
15792
15424
14962
14470
13799
12812
11944
11198
10322
8870
8909
9317
9941
10376
10318
9782
9172
8679
8264
8130
8212
8559
9434
10373
11014
11757
12595
13570
14471
15103
15418
15034
14561
14286
13901
13003
10407
9153
8137
8104
9526
11570
12852
13320
13693
14437
14237
13676
12866
11878
8916
7240
6219
6203
6900
8225
10105
11879
13124
13999
14661
14521
14114
13680
13187
12517
11593
9289
8353
8457
9772
11459
12954
14181
15165
15812
15253
14539
14084
13711
13205
11055
9207
7262
5875
5382
5554
6334
7417
8653
9885
10941
11390
11549
12244
14854
15644
15675
15383
15248
14615
13799
12960
12380
11929
11210
8614
7905
7845
8246
9056
10038
10917
11629
12141
12524
12341
12805
13627
14212
14312
13374
12685
11627
10562
10068
10282
10489
10683
10923
11192
11400
11673
11836
11893
11806
11849
12688
13113
13071
13000
13013
12968
12601
12377
12266
11952
11407
9896
9059
8490
8482
8636
8677
9126
10167
11728
13192
14124
14480
14501
14320
14187
13835
12971
10244
8740
7457
6752
6998
8138
9822
11382
12387
12954
13315
15523
16141
15913
15241
14675
14431
13550
12909
11929
10850
9883
8872
7807
6848
6613
7296
8303
10782
12387
13464
13841
13767
13553
13294
13123
12833
12238
11611
10990
10481
10016
9915
10271
10840
11410
12256
12551
12559
12247
11615
10650
10729
11047
11263
11285
11055
10688
10503
11010
11985
13345
15621
15500
14963
14534
14054
12157
11049
10539
10224
9965
9742
9992
10792
13399
14041
14035
13570
12600
11381
8816
7624
7135
7293
7436
7586
7920
8403
9033
9791
10587
11373
11971
12387
13016
13206
13368
13548
13709
13829
13733
13548
13337
13165
13039
12957
13021
13383
13709
13735
13799
13651
13172
12577
11958
11274
10085
9753
9384
9052
8737
8659
8794
9174
9830
10620
11368
11893
12227
12446
12232
11938
11903
12393
14045
14823
15171
15210
15027
14646
13132
12091
10772
9150
7544
6204
5449
5448
6293
7516
8523
9367
10218
12055
12903
13565
14063
14332
14338
14411
14782
15291
16151
17288
17893
16753
14902
12912
11236
9792
7146
5640
4311
3502
3265
3288
3606
4682
6548
8681
10466
11792
12722
13316
13773
14596
14680
14610
14464
14281
13968
13860
13807
13742
13565
13317
12798
12716
12794
12904
12894
13073
12824
12242
11508
10856
10595
10774
10818
10753
10582
10371
10483
10758
11196
11694
11992
12033
11979
12101
12147
12082
12004
11908
11676
11502
11561
11725
11760
11724
11705
11645
11535
11311
10893
11000
11127
11169
11235
11644
11856
12214
12547
12761
12952
12961
12766
12576
12521
12502
12473
12302
11967
11496
10988
10806
11043
10964
10758
10811
10995
10929
10958
11163
11453
11546
11345
11128
10962
10991
10937
10679
9912
9641
9241
8905
9308
10305
11188
11659
11914
12201
12595
12683
12775
12913
13007
13287
13768
14299
14804
15242
15380
14885
14241
13589
12876
12038
10540
9922
9350
8612
7858
7554
7922
8608
9221
9752
10413
11023
11461
11689
11746
11651
11632
11806
12195
13090
13661
13967
13969
13961
13843
12945
11727
10738
10120
10021
10333
10502
10701
11037
11268
11418
11910
12535
12868
12542
11772
10483
10433
10679
11153
11676
12948
12802
12226
11739
11557
11806
11901
12038
12491
13253
13602
12254
11591
11766
12325
12806
12412
11281
9730
8314
7263
6475
5977
6139
7587
9553
11189
12321
13021
13692
13968
14057
13871
13445
11746
10479
9568
9363
9709
10344
10877
11372
12065
13618
14407
15316
16000
16121
15502
14901
14154
13263
12263
9783
9067
8880
8941
8881
9085
9843
10867
11741
12187
12257
12048
10828
9889
8870
8113
7768
7739
8528
9920
11347
12433
13095
13399
14027
14303
14348
14250
14150
13932
12943
12280
11728
11380
11122
10541
10461
10711
11224
11687
12069
12119
12168
12224
12338
12489
12481
12430
12303
12246
12306
12372
12241
12049
11774
11435
11077
10499
10125
9786
9748
10049
10479
10900
11554
11640
11622
11604
11722
12071
12206
12354
12406
12369
12275
12008
11862
11760
11721
11673
11548
11476
11432
11407
11417
11685
11876
12060
12156
12246
12385
12531
12514
12683
12979
13070
12786
12474
12045
11637
11039
10355
9838
9815
9615
9375
9275
9457
9873
10377
11020
11805
12503
12978
13271
13155
12894
12581
12243
11428
10860
10417
10163
9997
9954
10122
11039
11524
11896
12116
12255
12297
12055
11939
11954
11955
11923
11924
11985
12059
12097
12064
12012
12049
12097
12131
12150
12164
12147
12148
12141
12087
12031
11954
11898
11802
11662
11533
11502
11619
11666
11701
11807
11968
12180
12222
12234
12182
11993
11712
11029
10718
10604
10617
10535
10313
10442
10717
10971
11218
11653
11762
11831
11821
11805
11845
11959
11964
11982
11993
12000
11972
11963
12027
12163
12310
12483
12722
12650
12583
12530
12458
12017
11647
11188
10760
10440
10280
10175
10098
10268
10633
10924
11233
11420
11600
11718
11827
12030
12092
12109
12116
12113
12079
11943
11924
11942
11952
11971
11978
12027
12076
12137
12259
12374
12356
12278
12148
11995
11824
11492
11300
11091
10937
10866
10948
11000
11075
11203
11371
11600
11926
12033
12080
12054
11972
11793
11683
11606
11516
11391
11221
11036
11095
11212
11365
11525
11794
11926
12032
12065
12047
12301
12543
12734
12834
12840
12721
12334
12146
11924
11679
11408
10758
10461
10175
9959
9930
10111
10300
10746
11045
11412
11758
12002
12201
12451
12554
12668
12753
12821
12759
12631
12496
12363
12206
12052
11451
11009
10640
10354
10204
10255
10362
10504
10705
10934
11231
11822
11994
12099
12120
12110
12091
12117
12203
12289
12304
12218
12125
12017
11958
11938
11921
11815
11735
11653
11585
11532
11617
11693
11763
11808
11805
11790
11880
11914
11928
11926
11895
11775
11665
11562
11483
11427
11354
11368
11390
11390
11345
11323
11425
11516
11554
11559
11527
11505
11495
11518
11605
11684
11680
11592
11535
11487
11497
11602
11848
11929
11992
12025
12079
12129
12201
12244
12253
12220
12189
12057
11979
11907
11807
11695
11446
11377
11362
11332
11223
11110
11064
11023
10982
10969
11048
11286
11449
11595
11720
11819
11897
11987
11962
11925
11899
11856
11760
11732
11712
11675
11623
11548
11597
11666
11704
11729
11765
11847
11854
11891
11958
11976
11930
11898
11854
11811
11795
11801
11802
11774
11732
11695
11653
11681
11697
11691
11661
11623
11472
11337
11210
11172
11196
11265
11439
11473
11531
11609
11721
11961
12042
12088
12114
12097
12090
12020
12003
11988
11943
11859
11670
11498
11263
11062
10958
10995
11044
11054
11079
11126
11241
11625
11785
11866
11904
11950
12199
12279
12307
12289
12246
12186
12011
11912
11782
11654
11553
11495
11477
11464
11415
11388
11386
11425
11471
11535
11594
11641
11652
11632
11611
11589
11598
11621
11624
11641
11676
11705
11724
11685
11632
11613
11613
11611
11531
11469
11437
11429
11406
11424
11517
11561
11638
11699
11729
11769
11802
11827
11846
11842
11846
11871
11853
11845
11809
11790
11862
11895
11930
11961
11977
12078
12171
12266
12318
12312
12276
12205
12136
12034
11901
11724
11266
11014
10824
10711
10653
10618
10704
10800
10861
10919
10975
11172
11326
11504
11677
11812
12033
12132
12219
12265
12292
12329
12360
12313
12217
12085
11939
11930
11989
12024
12026
12031
12005
12016
12019
11963
11858
11708
11383
11213
11092
11019
10984
10933
11041
11161
11289
11336
11305
11293
11375
11494
11606
11698
11857
11925
11978
12017
12063
12089
12050
12027
12027
12011
11981
11826
11700
11633
11592
11552
11507
11480
11532
11575
11604
11587
11476
11365
11229
11177
11241
11514
11678
11801
11890
11972
12018
12063
12047
12001
11961
11906
11761
11683
11653
11629
11638
11674
11656
11612
11572
11561
11527
11549
11566
11599
11617
11618
11529
11426
11358
11353
11351
11373
11527
11610
11709
11796
11900
12230
12378
12460
12484
12477
12454
12337
12209
12060
11933
11788
11468
11370
11311
11269
11226
11168
10939
10771
10587
10472
10548
10832
10955
11115
11301
11482
11777
11877
11952
12007
12019
12009
11996
11963
11898
11850
11889
12070
12092
12106
12114
12098
12058
11922
11830
11751
11717
11698
11694
11766
11875
11945
11955
11861
11824
11826
11808
11778
11706
11586
11522
11474
11448
11446
11458
11392
11314
11301
11332
11373
11379
11401
11486
11620
11718
11807
11832
11853
11872
11878
11837
11700
11642
11617
11637
11673
11710
11729
11777
11841
11894
11906
11869
11809
11764
11725
11685
11584
11619
11708
11822
11881
11852
11856
11869
11850
11831
11784
11663
11643
11685
11686
11630
11441
11460
11536
11599
11578
11467
11445
11449
11480
11500
11471
11355
11352
11372
11380
11393
11304
11324
11406
11514
11573
11661
11869
11898
11870
11827
11773
11742
11802
11834
11826
11786
11720
11680
11649
11631
11609
11612
11746
11859
11983
12097
12187
12235
12196
12130
12072
12046
11962
11730
11630
11516
11416
11364
11324
11354
11435
11540
11638
11719
11786
11763
11730
11702
11658
11499
11363
11220
11102
11066
11221
11343
11488
11632
11764
11889
12082
12152
12197
12216
12235
12152
12041
11910
11785
11675
11583
11518
11524
11476
11421
11445
11593
11623
11608
11596
11607
11686
11688
11705
11731
11750
11735
11642
11577
11512
11491
11517
11644
11711
11761
11782
11824
11835
11765
11745
11719
11666
11610
11590
11647
11701
11717
11707
11670
11598
11556
11435
11285
11215
11335
11325
11296
11282
11331
11648
11836
12004
12145
12224
12214
12070
11993
11914
11842
11814
11893
11952
12016
12061
12027
11996
12041
11984
11880
11736
11616
11483
11425
11345
11254
11170
11123
11100
11099
11157
11239
11326
11624
11805
11956
12040
12081
12117
12140
12158
12152
12138
12086
11955
11854
11661
11450
11289
11159
11168
11226
11325
11441
11540
11703
11736
11745
11758
11772
11726
11718
11715
11734
11730
11566
11448
11373
11313
11292
11340
11648
11828
11967
12064
12117
12108
12076
11985
11838
11689
11576
11364
11339
11380
11445
11503
11600
11633
11659
11653
11633
11578
11541
11531
11565
11612
11666
11741
11787
11810
11852
11895
11964
11971
11940
11892
11816
11758
11668
11605
11506
11394
11397
11601
11751
11843
11871
11839
11784
11752
11628
11405
11251
11253
11354
11371
11438
11513
11610
11820
12000
12159
12284
12391
12514
12607
12524
12446
12381
12335
12195
12091
11937
11755
11588
11483
11257
11233
11258
11314
11365
11452
11483
11484
11466
11463
11510
11512
11460
11394
11343
11246
10800
10669
10684
10762
10879
11155
11369
11649
11925
12115
12233
12320
12357
12413
12457
12457
12274
12153
12047
11937
11835
11769
11761
11749
11755
11777
11793
11734
11676
11605
11529
11471
11373
11334
11319
11327
11371
11428
11630
11722
11747
11732
11709
11722
11746
11778
11792
11776
11750
11672
11618
11562
11495
11454
11451
11452
11445
11440
11450
11347
11349
11461
11633
11794
11932
12093
12109
12112
12104
12095
12057
12018
12009
12023
12041
12011
11995
12020
12071
12114
12095
11896
11756
11660
11699
11779
11811
11795
11730
11623
11478
11341
11236
11231
11326
11469
11596
11729
11715
11685
11647
11602
11562
11467
11414
11413
11380
11390
11633
11770
11879
11929
11912
11831
11866
11915
11908
11863
11785
11600
11501
11408
11325
11232
11198
11241
11294
11351
11412
11500
11653
11753
11854
11935
12012
11949
11895
11859
11792
11713
11668
11588
11575
11613
11649
11676
11752
11828
11926
12029
12094
12159
12219
12226
12154
12025
11916
11843
11808
11751
11640
11526
11416
11453
11563
11699
11763
11769
11692
11632
11604
11629
11647
11704
11715
11724
11729
11717
11751
11778
11762
11745
11741
11760
11743
11693
11701
11705
11673
11552
11486
11400
11344
11323
11332
11311
11341
11407
11418
11426
11538
11602
11661
11752
11855
11955
11973
11914
11799
11686
11621
11585
11583
11581
11613
11633
11682
11721
11765
11816
11867
11935
12073
12120
12100
12027
11929
11800
11835
11873
11858
11790
11637
11208
11097
11054
11075
11199
11505
11545
11541
11536
11541
11626
11702
11801
11902
11976
12049
12204
12239
12248
12250
12283
12275
12191
12112
12044
11969
11902
11889
11817
11694
11569
11458
11345
11326
11294
11263
11274
11343
11415
11475
11522
11572
11662
11812
11890
11961
12013
12072
12009
11898
11780
11661
11583
11541
11536
11513
11503
11510
11530
11623
11672
11675
11559
11425
11305
11028
10999
11049
11113
11185
11375
11494
11616
11701
11760
11892
12028
12189
12324
12424
12487
12443
12396
12368
12306
12231
11966
11742
11524
11346
11257
11240
11444
11607
11806
11968
12040
11943
11777
11588
11435
11357
11283
11254
11255
11309
11400
11508
11681
11748
11736
11742
11848
12010
12015
12047
12053
11988
11902
11836
11806
11707
11620
11540
11416
11418
11455
11469
11410
11377
11500
11575
11626
11701
11731
11664
11591
11507
11388
11268
11198
11268
11372
11500
11658
11775
11813
11779
11797
11843
11868
11967
12085
12179
12193
12170
12111
12019
12017
12007
11927
11820
11649
11638
11679
11753
11784
11785
11789
11770
11758
11786
11809
11882
11900
11931
11929
11862
11580
11445
11328
11256
11195
11162
11156
11213
11294
11403
11527
11781
11874
11921
11965
12024
12098
12089
12058
11966
11884
11843
11710
11579
11543
11564
11536
11351
11252
11130
11050
11045
11067
11106
11213
11354
11492
11633
11906
12034
12132
12211
12287
12319
12150
11887
11683
11568
11490
11363
11371
11464
11588
11729
11950
11958
11933
11921
11864
11785
11768
11810
11838
11886
11909
11942
11867
11757
11590
11372
11157
10928
10859
10844
10849
10902
11353
11615
11850
12091
12295
12554
12636
12692
12744
12780
12784
12584
12385
12105
11853
11701
11592
11480
11279
11108
11007
11015
11141
11159
11129
11074
11017
11089
11193
11363
11635
11889
12096
12269
12287
12262
12230
12194
12015
11891
11770
11688
11633
11476
11457
11429
11415
11424
11462
11487
11488
11551
11630
11630
11552
11476
11443
11493
11611
11733
11953
11976
11947
11876
11756
11637
11640
11611
11589
11554
11547
11581
11579
11598
11641
11747
11908
11885
11849
11827
11834
11896
11860
11805
11749
11679
11653
11674
11694
11732
11772
11819
11805
11832
11927
12038
12130
12119
11914
11596
11366
11283
11303
11316
11308
11317
11352
11430
11599
11689
11784
11851
11900
11902
11941
12021
12051
12003
11909
11630
11462
11341
11317
11375
11446
11590
11606
11624
11714
11887
12248
12309
12266
12161
12021
11655
11445
11265
11157
11115
11125
11326
11451
11541
11538
11518
11498
11451
11475
11561
11652
11763
11848
11841
11794
11693
11621
11586
11592
11632
11651
11719
11789
11760
11754
11792
11858
11933
12053
12056
12033
11964
11906
11772
11740
11732
11757
11776
11768
11614
11482
11374
11290
11235
11183
11210
11257
11292
11385
11535
11837
11970
12085
12123
12142
12069
11995
11925
11863
11822
11708
11732
11778
11802
11789
11763
11809
11890
11982
12019
11924
11706
11643
11601
11522
11409
11250
11035
11017
11046
11101
11191
11419
11600
11807
12016
12155
12228
12279
12316
12324
12328
12305
12257
12230
12146
11967
11739
11365
11216
11111
11042
11039
11076
11189
11268
11323
11391
11513
11752
11821
11896
11978
12065
12138
12118
12093
11958
11594
11249
11000
10983
11013
11049
11115
11474
11689
11874
12017
12111
12189
12230
12144
12059
12009
11923
11767
11767
11774
11761
11723
11694
11702
11692
11700
11721
11745
11860
11906
11906
11883
11874
11823
11800
11725
11595
11436
11303
11126
11105
11120
11171
11248
11388
11459
11507
11531
11591
11701
11967
12029
12039
12053
12070
12099
12098
12089
12080
12050
11992
11902
11734
11553
11443
11455
11491
11537
11624
11662
11672
11611
11519
11427
11371
11409
11511
11721
11785
11810
11755
11682
11490
11392
11431
11528
11482
11385
11428
11544
11637
11733
11778
11919
12016
12108
12147
12148
12031
11982
11919
11859
11806
11753
11719
11744
11803
11871
11922
11947
11927
11882
11828
11803
11815
11900
11922
11924
11894
11821
11716
11614
11383
11074
10797
10552
10578
10694
10874
11068
11257
11652
11875
12112
12273
12377
12485
12542
12588
12549
12429
12185
11759
11665
11622
11572
11478
11235
11192
11196
11195
11156
11119
11126
11230
11347
11497
11620
11664
11750
11899
11992
12032
11975
11898
11874
11884
11870
11854
11882
11816
11738
11690
11694
11712
11715
11757
11825
11855
11841
11718
11646
11608
11642
11669
11677
11726
11755
11739
11652
11558
11627
11686
11723
11757
11783
11758
11771
11789
11761
11717
11673
11667
11640
11610
11589
11585
11659
11704
11759
11832
11913
12019
12020
11985
11903
11789
11586
11576
11633
11662
11641
11625
11583
11551
11520
11433
11398
11419
11453
11527
11552
11542
11572
11637
11709
11755
11723
11647
11623
11573
11501
11467
11483
11567
11868
11944
11970
11953
11920
11722
11562
11466
11460
11542
11787
11837
11867
11859
11842
11813
11638
11587
11525
11483
11515
11762
11848
11932
12022
12103
12162
12336
12370
12334
12209
12096
11802
11633
11476
11369
11376
11463
11402
11297
11258
11291
11366
11595
11669
11745
11781
11768
11724
11762
11774
11729
11661
11589
11351
11277
11329
11447
11571
11662
11655
11602
11580
11600
11610
11715
11827
11961
12053
12055
11905
11802
11737
11714
11711
11750
11774
11776
11754
11707
11682
11664
11656
11680
11784
11952
12073
11961
11789
11657
11570
11519
11358
11277
11234
11205
11188
11322
11473
11583
11651
11747
11865
11880
11901
11890
11852
11830
11834
11821
11870
11943
11977
11914
11931
11950
11928
11886
11844
11802
11732
11649
11599
11568
11485
11449
11425
11391
11381
11440
11509
11584
11610
11592
11560
11570
11557
11518
11581
11724
11939
11978
12026
12051
12057
12038
11902
11834
11783
11734
11713
11695
11708
11755
11809
11818
11783
11710
11693
11721
11738
11740
11655
11579
11573
11573
11588
11591
11588
11561
11522
11522
11593
11766
11790
11753
11652
11536
11430
11453
11451
11434
11437
11488
11684
11761
11815
11874
11945
12121
12173
12214
12214
12147
12024
11936
11825
11748
11675
11577
11262
11089
10972
10938
11005
11160
11184
11213
11305
11424
11560
11751
11810
11874
11927
11937
11868
11827
11773
11768
11810
11908
12065
12080
12066
12025
11959
11828
11813
11829
11853
11879
11929
11926
11908
11872
11838
11794
11685
11650
11642
11631
11606
11576
11562
11540
11495
11456
11430
11434
11481
11574
11658
11700
11722
11742
11783
11819
11839
11938
12013
12063
12087
12091
12087
11952
11854
11772
11732
11723
11925
12081
12087
11966
11821
11633
11309
11285
11305
11272
11134
10833
10788
10827
10920
11022
11147
11518
11774
11969
12001
11899
11643
11681
11817
11991
12132
12296
12291
12206
12092
11974
11863
11698
11657
11605
11535
11422
11260
11209
11222
11242
11280
11312
11405
11472
11536
11597
11639
11820
11931
12005
12034
12050
12051
12065
12073
12092
12094
12084
12030
11981
11920
11868
11827
11784
11720
11610
11533
11505
11534
11582
11571
11508
11402
11357
11418
11480
11492
11483
11491
11566
11650
11769
11865
11918
11940
12004
12034
12005
11943
11873
11732
11643
11560
11495
11470
11476
11543
11581
11647
11718
11759
11789
11830
11856
11888
11961
12095
12275
12276
12242
12203
12165
12018
11901
11817
11732
11645
11562
11519
11400
11284
11233
11155
10885
10772
10756
10844
10969
11241
11395
11580
11745
11864
11936
12011
12031
12034
11985
11902
11723
11624
11560
11576
11625
11693
11751
11811
11829
11796
11719
11585
11537
11504
11474
11507
11610
11595
11568
11594
11657
11713
11812
11871
11957
12053
12138
12211
12194
12154
12100
12052
11984
11968
11930
11886
11809
11731
11609
11531
11463
11412
11400
11518
11558
11562
11539
11504
11474
11519
11559
11610
11680
11740
11770
11730
11723
11759
11830
11938
12158
12230
12282
12273
12226
12100
11986
11876
11759
11639
11369
11316
11302
11272
11256
11241
11216
11255
11283
11226
11127
11120
11270
11392
11506
11725
12018
12441
12560
12670
12696
12641
12518
12398
12252
12131
11942
11342
11039
10700
10390
10102
9895
9898
10046
10421
10720
11029
11289
11527
11900
12072
12212
12243
12223
12267
12369
12313
12186
12026
11899
11891
11918
12013
12250
12624
13129
13246
13270
13250
13235
13149
12730
12343
11872
11346
10834
10123
9819
9520
9321
9347
9686
10269
10808
11160
11383
11482
11469
11458
11441
11398
11346
11546
11865
12078
12107
12081
12148
12410
12846
13306
13621
13710
13614
13469
13147
12741
12344
11909
12195
12780
13539
14252
14599
14073
13443
12899
12359
11742
10479
9923
9121
8103
7015
6132
5519
4816
4223
4110
4744
6006
7564
9226
10601
11687
12488
14084
14996
15802
16577
17293
17847
17810
17645
17736
18016
17906
16593
15516
13987
12179
10441
7440
5779
4042
2675
1800
1670
2372
3788
5332
6669
7758
8676
9720
10887
12059
13061
13718
14250
14881
15102
15282
15420
15623
15906
15681
15331
14903
14530
14045
13437
12715
11969
11186
10677
10280
9983
9719
9648
9766
10174
10529
10652
10700
10992
11329
11594
11626
11640
11877
12025
12324
12715
13005
13206
13641
13748
13715
13567
13309
12881
12775
12535
12004
11318
10727
9803
9754
10027
10539
10997
11207
11114
10574
10318
10226
10209
10360
11828
12716
13429
13993
14420
14637
14830
14979
15028
15031
14583
12388
11213
10331
9681
9358
9166
8913
8574
8268
7653
6631
5530
4916
5144
6278
7716
8889
9903
11136
13900
14732
15118
15274
15291
15134
14563
14216
13830
13361
12694
11351
10917
10644
10422
10382
11253
11690
12022
12368
12620
12766
13196
13547
13933
14715
15792
16782
16230
15366
14604
14197
13749
12842
11843
10526
8990
7355
5779
4447
3554
3305
3829
4572
5116
5433
6007
7061
8326
9653
10980
13204
13911
14330
14496
14575
14957
15052
15033
15104
15326
15467
14945
14708
14514
14153
13537
12178
11648
11133
10576
10095
9931
10294
10939
11154
11585
12288
13004
13795
14309
15090
15391
15171
13926
13024
12000
10731
9400
8320
7409
6750
6184
5566
4977
4485
4549
5743
7751
9829
11487
13435
14157
14608
14827
14949
14881
14752
14401
13954
13955
14305
14366
13668
12801
11880
11144
10343
9901
9241
8594
8286
8478
8900
9261
9378
9496
10051
10978
11876
12527
12702
12655
12779
13371
14061
15878
16642
17178
17162
16729
14542
13011
11457
9806
8046
6299
4811
3967
4226
5400
6774
8426
10152
11877
15143
16144
16567
16593
16349
15810
13757
12412
10931
9340
7855
6700
6580
7431
8738
9976
10931
12181
12566
12778
12957
13083
13010
12993
13120
13087
12966
12727
12880
13152
13201
12877
12448
11906
10420
10170
10530
11041
11520
11962
11899
11628
11327
11196
10927
10390
9904
9657
9377
9003
8956
9424
9905
10329
10936
11587
14091
16674
18998
20179
20547
20198
17595
15694
13537
11099
8374
5422
2668
382
9
9
9
905
3964
6907
9311
11362
13123
14416
15088
15298
15102
14810
14451
14043
13384
11428
11198
11704
12578
13332
13862
14689
14513
13993
13380
12890
12338
12241
12025
11598
11165
10645
10699
10819
11068
11335
11467
10882
10206
10016
11057
12714
15125
15351
15270
15101
14705
14095
11549
9824
8237
7361
7627
8658
9727
10833
11731
12326
12555
12100
11473
10552
9180
7491
5819
4589
4406
5375
7039
8887
10658
13064
13640
13966
14109
14172
14192
14092
14039
14004
13935
13835
13578
13563
13703
13901
14307
14715
14943
14877
14542
14013
13294
11193
10061
9078
8210
7660
7519
7725
8046
8714
9626
10369
10916
11598
13330
14115
14552
14539
14030
12749
12246
11737
11283
10932
10602
9890
9961
10274
10629
11062
11583
11936
11989
11837
11395
10707
9784
8846
8314
8505
9350
10470
12458
12960
13174
13248
13321
13594
13685
13579
13308
12946
12529
11832
11662
11633
11569
11410
11660
11895
12121
12500
12800
13053
13118
13016
12966
12796
12416
11189
10805
10319
9840
9651
9727
9882
9888
9675
9546
9324
9072
9190
9779
10412
11543
12007
12298
12418
12502
12664
13247
13398
13418
13451
13651
13543
13136
12657
12107
11455
10817
10077
10187
10549
10921
11175
11604
11986
12258
12306
12194
11794
11663
11554
11414
11312
11226
11291
11343
11481
11697
11883
12042
12088
12150
12181
12202
12230
12202
12126
12043
12036
12336
12909
12938
12954
12948
13019
13206
12954
12635
12236
11721
11125
10136
9704
9215
8687
8329
8189
8226
8525
9190
9970
10578
10916
11086
11230
11903
12712
13641
14529
14894
14341
13933
13581
13268
12877
11631
10819
9938
8927
7962
7478
7825
8924
10271
11313
11898
12234
12342
12429
12455
12476
12507
12553
12558
12589
12603
12627
12719
12878
12966
12935
12821
12644
12395
12367
12238
12085
11980
12022
12001
12039
12029
11877
11539
11471
11207
10767
10254
9821
9602
9589
9581
9582
9964
10480
11052
11504
11781
11934
12072
12134
12194
12334
12479
12582
12771
12890
12935
12907
12863
12882
12890
12702
12379
11934
11455
10907
10748
10608
10635
10795
10988
11067
11160
11250
11373
11558
12265
12548
12665
12679
12751
12900
12802
12619
12419
12189
11883
11116
10776
10397
10047
9806
9737
9863
10024
10595
10945
11293
11533
11716
12125
12267
12326
12327
12356
12428
12627
12645
12599
12484
12335
12331
12330
12237
12123
11995
11918
11929
11896
11758
11546
11364
11007
10794
10584
10405
10379
10467
10682
11039
11364
11591
11762
11908
11891
11896
11906
11941
12081
12074
12025
11974
11952
11979
12094
12123
12148
12176
12227
12327
12312
12279
12234
12174
11946
11850
11771
11636
11459
11324
11233
11221
11177
11063
10893
10844
10962
11068
11102
11145
11229
11501
11608
11118
11408
11989
12251
12261
12247
12214
12197
12228
12261
12360
12452
12514
12537
12326
12217
12038
11776
11491
11075
10942
10833
10750
10691
10597
10583
10811
11072
11390
11700
12122
12252
12357
12427
12445
12405
12219
12102
11947
11739
11539
11354
11268
11127
10997
10924
11003
11184
11400
11591
11732
11882
12209
12274
12322
12350
12344
12317
12284
12229
12184
12099
11905
11607
11634
11630
11610
11589
11505
11421
11237
11068
11036
11143
11162
11128
11136
11248
11442
11849
12012
12091
12120
12193
12358
12456
12521
12559
12511
12409
11913
11575
11190
10800
10571
10578
10756
11021
11264
11540
11869
11965
12048
12107
12086
12011
11644
11426
11260
11199
11226
11348
11292
11267
11290
11348
11410
11601
11678
11720
11759
11812
11840
11885
11941
11970
11959
11946
11919
11924
11953
11994
12029
12152
12182
12225
12230
12181
11929
11821
11686
11625
11601
11546
11279
11168
11106
11048
11001
10958
11101
11279
11484
11757
12092
12545
12623
12598
12461
12303
12010
11831
11629
11411
11204
10880
10737
10661
10635
10643
10716
10875
11051
11285
11556
11809
12179
12272
12299
12263
12237
12237
12203
12183
12191
12205
12205
12078
11993
11911
11839
11788
11741
11585
11450
11300
11179
11116
11087
11162
11300
11496
11691
12024
12116
12159
12184
12209
12229
12206
12149
12044
11918
11800
11567
11424
11271
11194
11218
11291
11451
11474
11495
11569
11667
11787
11855
11952
12044
12083
12071
12058
12015
11932
11806
11640
11232
11045
10953
10904
10869
10940
11080
11275
11432
11583
11736
12022
12146
12304
12454
12535
12537
12490
12430
12329
12186
12039
11638
11442
11283
11159
11069
10954
10856
10818
10875
10959
11071
11091
11127
11212
11321
11404
11578
11727
11781
11796
11800
11874
11916
11974
12049
12112
12139
12084
12035
11999
12015
12074
12137
12141
12110
12054
11985
11938
11904
11879
11888
11882
11852
11818
11773
11658
11536
11447
11491
11523
11590
11603
11556
11462
11284
11173
11089
11017
10971
11052
11062
11009
10908
10846
11062
11295
11545
11800
11985
12123
12302
12345
12371
12361
12309
12223
12195
12162
12161
12168
12140
11997
11884
11785
11715
11673
11706
11795
11933
12060
12154
12181
12120
12045
11946
11854
11756
11647
11640
11663
11658
11648
11503
11386
11285
11226
11177
11128
11040
11073
11122
11131
11129
11218
11286
11344
11399
11468
11560
11742
11821
11949
12072
12143
12107
12040
11931
11803
11667
11505
11474
11445
11463
11528
11622
11738
11766
11766
11758
11784
11927
11956
11968
11964
11946
11972
12055
12093
12099
12084
12051
11974
11957
11951
11941
11914
11697
11573
11462
11370
11256
11191
11186
11175
11069
10934
10858
10894
10971
11020
11054
11107
11208
11557
11702
11825
11948
12063
12199
12224
12221
12196
12175
12149
12063
11972
11831
11702
11634
11629
11713
11788
11844
11883
11867
11809
11740
11720
11715
11725
11787
11802
11816
11858
11866
11845
11831
11789
11711
11604
11501
11320
11322
11397
11478
11554
11680
11711
11753
11782
11813
11859
11865
11833
11794
11765
11713
11571
11530
11507
11485
11462
11448
11455
11467
11492
11507
11531
11590
11654
11715
11760
11786
11832
11881
11922
11942
11960
11965
11868
11802
11752
11712
11666
11616
11660
11773
11939
12035
12083
12055
12050
12011
11939
11820
11484
11268
11120
11093
11160
11415
11531
11695
11829
11880
11895
11693
11468
11191
10968
10878
11067
11211
11318
11395
11462
11642
11719
11749
11734
11721
11749
11848
11902
11949
11947
11937
11976
12006
12024
12040
12056
12058
12005
11976
11944
11914
11896
11878
11871
11868
11834
11784
11729
11576
11460
11393
11392
11446
11547
11521
11443
11438
11507
11675
11718
11762
11813
11831
11848
11851
11797
11736
11694
11658
11590
11549
11507
11451
11377
11317
11400
11505
11626
11670
11649
11672
11708
11727
11752
11803
11888
11895
11887
11883
11876
11867
11847
11832
11820
11804
11795
11695
11640
11687
11754
11791
11785
11549
11394
11270
11236
11297
11501
11551
11586
11572
11580
11680
11798
11956
12040
12028
11989
11893
11872
11874
11853
11844
11896
11910
11849
11740
11627
11563
11522
11472
11407
11369
11336
11391
11370
11321
11315
11339
11365
11401
11446
11539
11655
11755
11866
11820
11815
11861
11932
12031
12053
12019
11978
11943
11896
11801
11788
11793
11827
11864
11919
11864
11764
11711
11665
11566
11409
11354
11327
11324
11355
11566
11689
11742
11804
11867
11992
12024
12021
11973
11905
11852
11798
11745
11691
11617
11563
11495
11470
11484
11541
11588
11629
11599
11551
11497
11447
11396
11330
11397
11499
11600
11682
11780
11914
11920
11911
11897
11861
11852
11778
11664
11596
11578
11700
11784
11853
11909
11971
12032
12003
11953
11906
11867
11816
11671
11611
11555
11480
11419
11389
11457
11499
11523
11536
11581
11764
11815
11782
11738
11734
11807
11828
11796
11747
11684
11578
11441
11486
11564
11628
11695
11836
11876
11857
11810
11752
11731
11747
11724
11714
11706
11709
11738
11753
11755
11810
11864
11801
11777
11764
11755
11737
11719
11512
11324
11238
11258
11285
11351
11457
11556
11608
11646
11630
11619
11648
11691
11748
11783
11876
11908
11922
11962
12024
12087
12280
12327
12344
12298
12195
11933
11779
11630
11508
11438
11285
11173
11145
11222
11325
11407
11525
11551
11553
11553
11549
11584
11602
11651
11704
11738
11765
11794
11823
11855
11872
11864
11782
11746
11753
11779
11817
11883
11903
11885
11854
11765
11634
11510
11601
11694
11748
11764
11748
11734
11692
11624
11562
11550
11632
11675
11712
11746
11761
11788
11793
11790
11770
11774
11806
11853
11854
11830
11768
11682
11595
11524
11472
11490
11592
11857
11949
11988
11974
11890
11768
11561
11454
11348
11257
11210
11274
11396
11560
11726
11863
11970
12094
12107
12105
12118
12152
12181
12156
12092
11960
11796
11581
11525
11479
11396
11276
11196
11297
11376
11389
11337
11281
11221
11218
11265
11406
11577
11704
11838
11872
11902
11962
12055
12275
12355
12378
12338
12268
12077
11990
11888
11770
11672
11604
11523
11517
11543
11579
11597
11603
11582
11566
11570
11580
11614
11679
11687
11684
11675
11652
11658
11667
11650
11616
11590
11573
11583
11596
11612
11631
11648
11681
11693
11712
11725
11742
11768
11784
11810
11828
11818
11797
11756
11738
11701
11697
11717
11715
11688
11636
11560
11511
11544
11721
11738
11741
11731
11683
11602
11593
11615
11667
11734
11777
11739
11717
11702
11670
11671
11707
11696
11639
11564
11477
11370
11372
11410
11451
11506
11616
11755
11792
11836
11866
11894
12098
12198
12274
12290
12245
12125
11888
11825
11749
11601
11429
11345
11431
11528
11607
11671
11763
11775
11794
11789
11775
11762
11849
11900
11903
11894
11880
11856
11772
11664
11572
11551
11559
11568
11587
11589
11576
11587
11577
11578
11561
11516
11464
11386
11376
11401
11502
11626
11742
11921
11995
12028
12036
12034
11854
11725
11663
11598
11474
11315
11245
11284
11359
11498
11663
11794
11839
11925
12035
12142
12178
12125
12064
11960
11820
11672
11449
11372
11333
11309
11245
11081
11029
10974
10992
11081
11163
11281
11281
11282
11341
11468
11840
12039
12220
12366
12492
12598
12754
12815
12842
12814
12738
12389
12156
11907
11708
11583
11283
11144
11053
11058
11126
11140
11048
11040
11066
11130
11217
11491
11641
11786
11969
12166
12312
12429
12446
12426
12323
12149
11798
11618
11426
11271
11218
11264
11327
11399
11476
11501
11486
11454
11474
11434
11303
11245
11356
11452
11578
11722
11822
11906
12083
12103
12089
12050
11985
11655
11460
11277
11145
11082
11053
11023
11117
11268
11441
11649
12096
12290
12471
12589
12638
12645
12611
12521
12427
12279
12052
11576
11336
11139
11027
10975
10959
11030
11134
11198
11186
11210
11475
11635
11825
12008
12153
12305
12384
12462
12492
12468
12202
11965
11726
11550
11410
11274
11118
11083
11055
11068
11097
11280
11405
11518
11563
11577
11591
11438
11227
11132
11184
11294
11498
11603
11728
11838
11880
11844
11816
11815
11844
11825
11761
11614
11622
11621
11587
11547
11599
11588
11599
11668
11766
11863
12095
12201
12266
12283
12293
12191
12021
11837
11689
11587
11468
11294
11263
11189
11046
10898
10749
10773
10813
10883
10999
11318
11530
11740
11934
12123
12294
12466
12456
12479
12545
12622
12664
12593
12480
12321
12112
11890
11492
11366
11270
11226
11196
11259
11336
11417
11474
11520
11627
11743
11851
11937
11961
11943
11859
11833
11834
11821
11782
11628
11529
11433
11347
11346
11435
11600
11544
11429
11284
11165
11165
11251
11321
11409
11514
11612
11755
11841
11891
11898
11866
11622
11466
11419
11405
11422
11486
11478
11476
11478
11461
11452
11548
11706
11869
12055
12207
12299
12268
12237
12149
11992
11848
11601
11462
11344
11289
11298
11481
11586
11665
11668
11659
11713
11747
11791
11851
11928
11974
11898
11697
11451
11175
11007
10916
10913
10954
11040
11158
11341
11876
12140
12320
12438
12516
12578
12568
12527
12447
12388
12360
12183
12044
11818
11571
11342
11052
10977
10920
10898
10924
11105
11232
11389
11547
11683
11767
11674
11641
11656
11710
11751
11764
11723
11678
11658
11632
11686
11872
11930
11924
11882
11851
11805
11772
11744
11744
11735
11652
11523
11416
11370
11356
11342
11299
11237
11163
11126
11129
11168
11238
11369
11534
11709
11882
12133
12208
12283
12238
12087
12095
12197
12277
12263
12142
11909
11798
11703
11624
11559
11524
11315
11239
11239
11298
11407
11702
11760
11799
11796
11785
11780
11872
11873
11830
11770
11728
11554
11514
11556
11600
11588
11572
11618
11646
11658
11655
11695
11833
11859
11842
11777
11736
11779
11767
11738
11721
11686
11617
11484
11447
11422
11422
11443
11505
11570
11655
11735
11786
11797
11793
11791
11748
11667
11592
11481
11440
11424
11471
11527
11488
11434
11415
11400
11457
11549
11760
11798
11824
11847
11878
11818
11721
11663
11670
11704
11727
11790
11813
11841
11899
11952
12036
12013
11936
11886
11882
11864
11876
11917
11967
12044
12079
12080
11970
11827
11790
11813
11768
11696
11624
11545
11405
11256
11125
11169
11256
11355
11424
11288
11233
11250
11285
11297
11293
11254
11253
11220
11165
11129
11099
11111
11204
11373
11553
11952
12155
12328
12452
12542
12630
12771
12806
12785
12731
12662
12474
12281
12110
11969
11816
11615
11121
10943
10840
10788
10782
10909
10987
11085
11229
11369
11662
11768
11816
11843
11880
11945
11965
11920
11863
11808
11783
11805
11714
11589
11516
11488
11498
11611
11629
11673
11719
11732
11715
11716
11700
11694
11714
11777
11972
12140
12323
12481
12542
12433
12263
12010
11719
11437
11021
10858
10752
10727
10807
10925
11141
11229
11303
11384
11480
11716
11803
11848
11844
11791
11721
11749
11750
11769
11794
11840
11722
11593
11510
11484
11469
11500
11543
11587
11640
11726
11815
12063
12208
12328
12446
12494
12346
12179
11994
11857
11817
11789
11559
11360
11159
11037
11046
11214
11253
11257
11297
11314
11298
11383
11538
11750
11932
12087
12254
12312
12392
12424
12336
11917
11753
11645
11530
11413
11359
11389
11410
11434
11456
11470
11558
11627
11719
11812
11945
12065
12105
12106
12113
12114
12075
11959
11895
11782
11636
11491
11296
11301
11348
11393
11436
11491
11559
11547
11504
11503
11525
11510
11458
11459
11495
11440
11281
11125
11122
11140
11154
11116
11145
11261
11443
11657
11871
12150
12240
12347
12443
12511
12553
12626
12643
12665
12698
12613
12013
11684
11388
11176
11036
10932
10793
10832
10914
11019
11140
11396
11548
11720
11868
11974
12088
12371
12455
12460
12414
12311
11831
11620
11528
11531
11615
11830
11876
11869
11844
11838
11828
11695
11596
11489
11439
11428
11510
11504
11451
11343
11283
11289
11346
11437
11572
11695
11769
11771
11698
11592
11527
11535
11550
11499
11433
11399
11411
11443
11439
11454
11491
11534
11541
11599
11708
11839
11960
12093
12270
12511
12544
12545
12498
12377
12040
11933
11855
11810
11724
11453
11275
11138
11074
11095
11249
11519
11587
11621
11635
11665
11734
11736
11754
11784
11793
11766
11772
11803
11809
11810
11824
11763
11740
11777
11800
11738
11637
11379
11294
11255
11237
11251
11312
11367
11440
11546
11669
11786
11810
11835
11911
12018
12074
12026
11977
11941
11892
11860
11856
11875
11854
11788
11697
11626
11566
11589
11610
11584
11562
11367
11279
11311
11371
11462
11696
11732
11767
11770
11778
11810
11823
11837
11879
11944
11998
12065
12064
12030
11934
11831
11738
11655
11638
11607
11561
11544
11691
11715
11709
11729
11759
11765
11690
11667
11623
11527
11406
11265
11253
11305
11414
11447
11407
11414
11483
11574
11609
11641
11700
11687
11648
11614
11620
11704
11841
12016
12123
12151
12122
12015
11929
11857
11797
11773
11883
11913
11880
11800
11700
11458
11371
11330
11281
11286
11340
11536
11600
11619
11685
11766
11898
11922
11958
11996
12031
11972
11753
11711
11671
11562
11437
11346
11271
11183
11173
11174
11177
11457
11652
11750
11789
11783
11806
11832
11890
11956
12015
12056
12006
11934
11889
11890
11946
12107
12148
12154
12093
11947
11747
11634
11487
11375
11305
11276
11240
11207
11206
11249
11283
11347
11379
11478
11571
11636
11751
11741
11753
11804
11838
11822
11576
11460
11419
11469
11577
11697
11777
11880
11924
11914
11924
11949
11911
11852
11756
11690
11575
11547
11604
11739
11829
11842
11840
11870
11833
11798
11785
11678
11550
11428
11349
11354
11370
11366
11387
11416
11396
11347
11314
11421
11581
11724
11856
11975
11983
11908
11820
11764
11744
11680
11669
11712
11773
11792
11750
11706
11677
11640
11615
11702
11783
11862
11941
11993
11991
11842
11797
11752
11722
11753
11834
11824
11762
11650
11537
11438
11326
11376
11430
11447
11519
11681
11749
11771
11784
11774
11584
11544
11570
11616
11632
11633
11586
11563
11566
11605
11666
11712
11767
11814
11845
11880
11923
11976
12001
11998
11974
11884
11699
11600
11501
11376
11286
11268
11319
11402
11527
11683
11838
12071
12114
12144
12118
12036
11840
11728
11586
11473
11423
11446
11701
11828
11854
11780
11699
11456
11414
11485
11560
11584
11594
11638
11755
11886
11998
11993
11738
11539
11388
11294
11244
11212
11282
11384
11567
11769
11916
11937
11895
11888
11910
11958
12008
11993
11966
11959
11975
12000
11954
11956
11933
11874
11828
11840
11870
11877
11860
11835
11703
11595
11485
11392
11399
11492
11646
11626
11577
11520
11492
11608
11715
11830
11987
12111
12144
12092
12045
12024
12016
11972
11805
11706
11605
11486
11358
11262
11161
11164
11190
11242
11303
11426
11491
11570
11576
11531
11565
11591
11615
11652
11685
11691
11760
11821
11858
11851
11829
11808
11806
11815
11835
11864
11891
11891
11862
11804
11731
11683
11663
11655
11605
11510
11422
11323
11308
11294
11343
11426
11520
11679
11711
11732
11746
11771
11665
11623
11600
11571
11591
11679
11800
11767
11681
11612
11580
11585
11570
11543
11503
11460
11454
11428
11445
11489
11537
11621
11714
11721
11727
11697
11626
11484
11470
11505
11561
11564
11562
11669
11697
11658
11608
11592
11788
11948
12109
12210
12253
12254
12199
12214
12219
12200
12134
11930
11777
11577
11368
11173
11008
11062
11173
11226
11191
11104
11014
10981
11018
11103
11231
11340
11359
11415
11511
11639
11747
12004
12128
12207
12233
12229
12182
12153
12146
12121
12073
11967
11904
11846
11786
11742
11682
11661
11668
11671
11645
11617
11580
11580
11572
11543
11503
11488
11497
11451
11379
11291
11265
11494
11611
11706
11755
11792
11824
11900
11927
11946
11990
12008
11939
11865
11800
11723
11629
11472
11371
11283
11214
11174
11155
11126
11208
11314
11397
11488
11716
11795
11818
11846
11836
11778
11495
11373
11366
11464
11637
11995
12182
12323
12418
12526
12792
12838
12851
12820
12711
12551
12109
11879
11660
11425
11154
10592
10315
10085
9889
9693
9660
9754
9862
9976
10044
10161
10701
11054
11384
11651
11899
12105
12325
12398
12466
12508
12525
12532
12532
12502
12465
12407
12251
12179
12120
12066
12043
12028
11971
11939
11928
11956
11989
11948
11932
11894
11870
11801
11669
11411
11327
11279
11211
11137
11067
11112
11154
11119
11109
11227
11198
11096
11019
11058
11218
11588
11700
11741
11794
11883
12025
12044
12049
12031
12008
11984
11837
11713
11655
11666
11692
11667
11717
11771
11848
11906
11961
11971
11972
11945
11896
11881
11833
11746
11638
11481
11307
11034
10927
10826
10744
10656
10593
10671
10823
11016
11195
11324
11703
11944
12198
12425
12605
12745
13072
13212
13240
13133
12989
12672
12432
12144
11817
11447
10680
10262
9930
9761
9753
9883
10081
10290
10464
10679
11211
11495
11736
11869
11906
11850
11881
11870
11866
11882
12004
12055
12035
11946
11897
11951
12031
11996
11967
11925
11880
11895
12016
12084
12122
12111
12046
11870
11784
11704
11576
11385
11018
10955
10965
11010
11044
10805
10719
10867
11117
11312
11473
11873
12049
12186
12314
12376
12442
12447
12413
12360
12250
12128
11932
11822
11726
11658
11580
11323
11205
11111
11033
10966
10953
11051
11165
11246
11309
11426
11741
11892
11999
12130
12299
12334
12231
12096
12004
11916
11776
11371
11106
10810
10578
10381
10538
10874
11239
11523
11735
11901
12337
12540
12680
12788
12871
12771
12604
12461
12326
12227
11914
11603
11236
10874
10563
10273
9938
9861
9895
9981
10094
10184
10256
10424
10719
11258
11460
11669
11878
12203
12574
12584
12615
12667
12671
12631
12541
12499
12393
12290
12228
12134
12016
11924
11888
11854
11862
11921
11868
11754
11616
11383
10776
10406
10148
9962
9864
9842
9892
10120
10507
11265
11613
11967
12290
12548
12714
12722
12750
12772
12810
12853
12791
12645
12524
12399
12232
12050
11944
11695
11464
11244
11039
10802
10724
10662
10595
10470
10336
10377
10551
10806
11082
11375
12001
12272
12335
12270
12180
12108
11999
11816
11641
11488
11167
11015
10955
10962
11051
11201
11521
11702
11891
12158
12426
12610
12542
12445
12262
11978
11693
11371
11411
11572
11887
12229
12771
12862
12766
12584
12354
11859
11747
11692
11598
11385
11116
10530
10330
10352
10489
10634
10877
11137
11464
11702
11838
11982
12657
12886
12977
12957
12819
12369
12236
12126
11955
11724
11262
10850
10455
10182
9872
9540
9406
9635
10029
10314
10822
11078
11222
11246
11206
11416
11519
11612
11846
12362
13617
13835
13837
13673
13432
13169
12699
12690
12716
12623
12360
11556
11220
10907
10682
10588
10573
10404
10404
10449
10531
10624
11010
11230
11357
11396
11409
11780
12053
12191
12201
12224
12251
12419
12568
13010
13275
13248
13117
13154
13296
13580
13888
13811
12553
11852
11324
10810
10226
9289
9024
8797
8429
8054
7805
7715
7981
8540
9267
10102
10874
11624
12288
12850
13460
13675
13844
14064
14140
13742
13374
12975
12600
12256
11967
11942
11861
11622
11281
10842
10033
9938
10295
10918
11472
11830
11870
11715
11455
11294
11433
11577
12067
12430
12755
12993
13274
13857
13988
13914
13641
13401
13602
14213
13629
12527
11480
10853
10459
9976
9426
9249
9106
8591
7822
6982
6448
6613
7390
8442
9420
10456
11704
12898
14481
14598
14138
13551
13151
13056
13225
12983
12435
11545
10474
9040
8923
8785
8839
9357
10270
11318
12245
12821
13326
15464
16268
16389
15992
15233
14531
13794
13472
13024
12281
11276
9233
8445
8191
8379
9246
10429
11336
11619
11457
10856
9604
9230
9234
9712
10380
10819
10999
11135
11414
12383
12618
12631
12299
11679
11016
11143
11163
11221
11543
12146
13564
14136
14566
14756
14594
13454
12556
11293
9836
8985
8952
9344
9535
9631
9804
10019
10242
11391
11937
12584
13363
14163
15032
15765
15764
15508
14925
14053
11503
10096
8852
7802
6743
5859
5366
5462
6232
7536
9083
10648
12293
13877
15255
15256
15110
14887
14476
13388
12860
12657
12634
12490
12013
11936
12016
12018
11639
11381
11628
11447
11020
10324
9590
9199
9051
8929
8952
9429
10271
11814
12035
12176
12351
12445
12433
12762
12967
13012
12931
12634
11936
11628
11517
11492
11497
11067
10614
10202
9955
10059
10404
12187
13065
13507
13503
13143
12593
11490
11202
11049
10882
10722
10318
10153
9847
9665
10049
10829
11574
12532
12657
12688
13030
13756
14424
14323
13667
12889
12183
11600
10868
10563
10380
10195
10019
9994
10048
10674
11311
11755
11914
11963
12066
12079
12054
12015
12003
12021
11942
11797
11772
11884
11968
12232
12763
13369
13925
14175
13561
12987
12365
11786
11160
10363
8771
8200
7774
7740
7925
8318
9074
10029
10969
11648
12019
12456
12666
12815
12891
12962
12991
12976
12939
12878
12784
12666
12422
12270
12109
12017
12070
12148
12157
12145
12155
12190
12099
11638
11419
11199
10926
10662
10507
10522
10676
10822
10845
10964
11586
11853
12010
12096
12139
11818
11619
11645
11766
11807
11793
11806
11870
11950
12024
12121
12470
12754
13056
13389
13555
13518
13122
12896
12462
11870
11344
10358
9891
9510
9350
9259
9282
9536
9884
10301
10679
10985
11290
11894
12038
11980
11763
11440
10941
10823
10885
11098
11355
11656
12013
12095
12188
12275
12310
12392
12554
12638
12686
12678
12602
12327
12196
12059
11919
11796
11567
11474
11383
11311
11337
11557
11593
11611
11638
11665
11658
11467
11324
11214
11190
11289
11568
11644
11719
11790
11811
11811
11795
11776
11757
11750
11754
11787
11812
11805
11749
11658
11422
11358
11357
11401
11482
11559
11707
11742
11761
11776
11785
11826
11827
11827
11838
11828
11812
11747
11721
11713
11700
11686
11666
11632
11600
11585
11603
11628
11629
11626
11640
11649
11639
11585
11553
11522
11508
11500
11529
11532
11532
11549
11582
11600
11644
11673
11690
11706
11715
11774
11799
11813
11813
11814
11804
11783
11765
11760
11754
11733
11676
11638
11604
11578
11554
11566
11586
11572
11555
11558
11567
11643
11668
11681
11702
11727
11811
11851
11889
11905
11914
11878
11761
11713
11673
11650
11618
11588
11599
11603
11566
11498
11534
11628
11698
11771
11835
11886
11902
11863
11823
11799
11800
11798
11817
11817
11814
11796
11766
11848
11933
11969
11975
11903
11683
11605
11553
11539
11536
11441
11392
11338
11306
11310
11321
11336
11377
11440
11514
11593
11679
11685
11692
11690
11672
11664
11742
11808
11863
11898
11887
11808
11809
11823
11831
11833
11846
11948
12020
12073
12089
12103
12108
12086
12074
12038
11957
11707
11503
11281
11095
11049
11133
11311
11312
11320
11390
11500
11684
11755
11797
11819
11832
11866
11894
11893
11907
11883
11894
11908
11929
11938
11907
11885
11848
11791
11733
11677
11619
11541
11301
11251
11263
11319
11412
11495
11464
11394
11361
11442
11526
11705
11783
11749
11731
11790
12042
12208
12149
9346
8282
9524
12766
14064
13419
13001
12672
12389
12143
11945
11827
11800
11718
11632
11577
11584
11576
11563
11554
11546
11555
11646
11647
11632
11598
11533
11443
11470
11494
11463
11471
11541
11594
11631
11639
11644
11686
11822
11876
11932
11984
11995
11999
11963
11921
11870
11814
11759
11651
11618
11590
11583
11601
11619
11616
11571
11489
11474
11660
11725
11738
11709
11666
11622
11521
11474
11475
11521
11597
11706
11708
11719
11757
11791
11798
11720
11720
11745
11770
11810
11852
11898
11900
11849
11820
11803
11780
11709
11610
11551
11553
11692
11800
11919
12047
12150
12316
12307
12272
12190
12047
11862
11488
11218
10857
10572
10434
10412
10504
10668
10910
11206
11525
11989
12130
12187
12126
11956
11450
11243
11112
11063
11082
11237
11319
11445
11587
11704
11815
12045
12114
12139
12120
12084
12111
12143
12176
12206
12218
12191
12027
11937
11841
11751
11693
11727
11789
11811
11799
11785
11785
11783
11734
11685
11632
11610
11702
11719
11726
11707
11672
11648
11674
11710
11735
11755
11768
11778
11774
11763
11773
11819
11852
11838
11834
11842
11838
11859
11852
11808
11767
11723
11698
11658
11605
11512
11445
11412
11431
11446
11485
11559
11629
11695
11733
11693
11641
11539
11422
11289
11346
11431
11500
11530
11558
11497
11494
11554
11648
11727
11845
11941
12025
12153
12314
12591
12588
12485
12387
12288
12180
11935
11774
11596
11411
11234
11090
11095
11143
11201
11217
11269
11228
11067
10990
11058
11257
11624
11753
11835
11829
11791
11767
11689
11652
11588
11529
11544
11627
11664
11728
11779
11846
12040
12169
12277
12342
12352
12321
12186
12090
11947
11767
11641
11574
11540
11504
11458
11390
11311
11210
11213
11234
11269
11322
11464
11530
11597
11669
11697
11754
11830
11910
11961
11981
11992
11958
11942
11938
11927
11903
11857
11829
11789
11758
11734
11721
11768
11821
11875
11902
11910
11893
11905
11937
11971
12018
11988
11865
11704
11584
11530
11548
11710
11732
11675
11613
11557
11412
11309
11271
11276
11224
11152
11190
11262
11333
11373
11383
11467
11546
11677
11798
11893
11926
11969
11967
11979
12021
12013
11938
11871
11803
11761
11746
11832
11913
12013
12104
12151
12164
12115
12041
12005
11987
11939
11837
11699
11542
11369
11190
11049
10811
10744
10777
10910
11073
11269
11329
11420
11515
11666
11938
11985
12012
12018
11999
11963
11922
11929
11967
12008
12025
11966
11906
11850
11825
11803
11783
11782
11782
11786
11796
11801
11693
11644
11617
11595
11599
11613
11602
11589
11589
11612
11643
11678
11672
11690
11721
11756
11795
11791
11796
11813
11839
11834
11778
11736
11719
11726
11755
11896
11944
11958
11922
11825
11710
11574
11580
11675
11796
11896
11923
11863
11786
11679
11560
11345
11321
11317
11307
11288
11275
11387
11484
11569
11606
11604
11538
11498
11462
11445
11458
11530
11786
11893
11989
12063
12109
11995
11865
11786
11734
11665
11581
11610
11713
11853
11992
12067
12163
12147
12058
11875
11630
11211
11177
11216
11258
11279
11259
11320
11444
11544
11594
11642
11694
11695
11691
11689
11715
11755
11833
11883
11918
11945
11956
11908
11882
11886
11908
11947
11976
12001
12028
12022
12008
12002
11846
11730
11642
11582
11555
11528
11489
11464
11479
11528
11593
11696
11735
11757
11759
11759
11776
11785
11790
11752
11700
11593
11545
11525
11531
11561
11608
11695
11729
11759
11770
11802
11889
11938
11959
11927
11853
11801
11572
11497
11520
11560
11610
11713
11702
11656
11682
11738
11787
11753
11705
11644
11607
11619
11746
11781
11784
11793
11770
11642
11595
11544
11512
11506
11505
11437
11414
11389
11379
11422
11577
11692
11805
11918
12005
12037
11897
11792
11733
11705
11724
11818
11896
11953
11992
12012
11900
11784
11662
11548
11471
11427
11386
11366
11324
11317
11348
11513
11610
11675
11721
11763
11818
11864
11844
11830
11778
11709
11722
11754
11777
11800
11814
11724
11644
11578
11557
11587
11640
11762
11782
11780
11806
11883
12002
11996
11985
11991
12007
12016
11942
11901
11915
11944
11929
11702
11515
11317
11161
11108
11141
11293
11361
11457
11596
11759
11985
12040
12077
12104
12092
11773
11657
11564
11461
11358
11290
11304
11385
11474
11571
11674
11814
11832
11795
11719
11667
11658
11670
11700
11748
11795
11834
11893
11919
11918
11878
11827
11719
11634
11525
11477
11513
11566
11616
11639
11704
11786
11869
11946
11895
11797
11691
11630
11570
11484
11473
11481
11519
11564
11679
11757
11800
11832
11846
11812
11833
11870
11843
11803
11782
11724
11764
11850
11925
11938
11896
11884
11839
11660
11438
11286
11291
11388
11496
11608
11677
11659
11605
11619
11670
11726
11793
11885
11906
11935
11945
11925
11803
11767
11746
11698
11636
11535
11512
11549
11655
11754
11767
11581
11525
11438
11333
11344
11561
11668
11724
11737
11734
11778
11852
11875
11899
11905
11885
11881
11890
11885
11888
11886
11863
11839
11795
11740
11663
11532
11504
11585
11619
11642
11625
11454
11290
11142
11015
10882
10807
11022
11229
11448
11656
11852
12132
12227
12280
12304
12327
12310
12222
12180
12175
12165
12148
12217
12202
12118
11994
11870
11646
11583
11545
11512
11451
11375
11311
11321
11346
11393
11465
11652
11747
11820
11874
11880
11861
11740
11646
11530
11426
11289
10893
10816
10869
10988
11122
11506
11710
11869
11977
12107
12236
12456
12438
12332
12225
12167
12009
11934
11908
11881
11809
11677
11366
11360
11412
11505
11601
11723
11719
11656
11559
11471
11416
11497
11549
11571
11560
11572
11581
11636
11748
11835
11896
11975
11976
11928
11893
11868
11855
11784
11716
11654
11588
11515
11276
11082
10926
10799
10737
10762
10987
11027
11051
11129
11196
11379
11700
12092
12484
12769
13207
13338
13359
13327
13257
13186
12828
12599
12404
12200
12001
11578
11385
11200
11046
10992
11032
11094
11090
11104
11117
11050
10988
11041
11100
11153
11227
11446
11512
11517
11509
11475
11427
11429
11514
11647
11832
11994
12161
12202
12193
12130
12072
12058
12031
12020
12004
11964
11949
11948
11901
11812
11701
11572
11421
11181
11177
11237
11340
11448
11641
11669
11591
11482
11437
11457
11473
11516
11586
11666
11699
11701
11835
11956
12011
12051
12080
12073
12045
11993
11882
11738
11620
11593
11518
11449
11443
11557
11605
11565
11513
11408
11134
11043
10998
10990
11004
11052
11203
11275
11426
11636
11860
12295
12499
12644
12689
12735
12828
12966
12953
12841
12631
12360
11818
11577
11346
11152
11068
11053
11067
11166
11285
11367
11429
11569
11611
11657
11734
11812
11967
12060
12131
12168
12141
12115
12053
12046
12042
11986
11833
11429
11259
11140
11076
11076
11122
11245
11226
11171
11098
11030
11046
11146
11262
11382
11489
11706
11798
11865
11893
11915
11957
12040
12079
12116
12142
12138
12147
12154
12169
12151
12102
11992
11759
11570
11498
11530
11539
11515
11497
11542
11641
11738
11867
11912
11956
11971
11938
11792
11354
11283
11218
11094
11075
11361
11388
11287
11124
10993
10989
11075
11165
11314
11492
11713
12081
12165
12290
12465
12583
12650
12834
12886
12905
12838
12697
12308
12032
11881
11863
11840
11567
11398
11235
11106
11066
11133
11356
11479
11592
11663
11670
11613
11491
11347
11231
11179
11189
11329
11421
11505
11478
11359
11538
11625
11649
11675
11714
11774
11798
11842
11909
11979
11997
11896
11851
11794
11750
11726
11637
11673
11644
11482
11366
11330
11347
11453
11644
11818
11945
12188
12267
12277
12205
12141
12057
11787
11634
11466
11279
11102
10967
10972
11007
11084
11132
11412
11645
11899
12165
12394
12537
12567
12489
12376
12216
12008
11539
11333
11176
11005
10873
10824
11093
11255
11367
11416
11511
11815
11926
12039
12068
12004
11863
11752
11707
11746
11799
11863
12058
12145
12198
12171
12055
11850
11639
11440
11404
11347
11330
11567
11702
11811
11934
12095
12448
12556
12682
12827
12939
12690
12312
11920
11632
11434
11265
11008
10894
10762
10619
10528
10565
10683
10827
10984
11147
11315
11498
11545
11599
11640
11718
11886
11952
12001
12038
12051
12000
11679
11525
11472
11493
11520
11348
11174
11038
10987
11030
11327
11517
11659
11740
11836
11959
11852
11803
11841
11989
12165
12287
12376
12415
12420
12509
12682
13076
13198
13212
13126
12913
12337
12162
12022
11799
11561
11467
11408
11343
11198
10992
10824
10336
10211
10321
10555
10764
10995
11097
11205
11368
11570
11691
11720
11653
11576
11529
11510
11592
11653
11637
11558
11513
11557
11622
11560
11374
11031
10737
10554
10745
11050
11395
11788
12473
12756
12971
13114
13134
13053
12885
12831
12779
12738
12720
12715
12646
12552
12498
12481
12409
12047
11792
11527
11260
11002
10415
10184
10068
10033
10024
10132
10318
10582
10911
11245
11496
11793
11811
11816
11850
11873
12038
12089
12034
11935
11771
11536
11492
11686
11921
12190
12393
12772
12891
12840
12732
12639
12537
12243
12054
11797
11526
11251
10511
10278
10176
10179
10280
10661
10958
11172
11306
11496
11719
11854
11724
11548
11435
11341
11456
11538
11617
11763
12020
12247
12712
12776
12693
12665
12656
12624
12657
12743
12773
12678
12222
11988
11760
11551
11381
11254
11170
11181
11258
11332
11369
11310
11301
11293
11221
11126
11064
10923
10822
10775
10806
10879
11179
11351
11552
11796
12030
12417
12545
12691
12788
12810
12751
12429
12157
11803
11444
11172
10791
10740
10857
11046
11266
11490
11800
11947
12066
12149
12182
11925
11576
11208
10997
10930
10958
11295
11455
11550
11604
11616
11585
11564
11556
11636
11718
11775
11855
11904
11870
11732
11619
11494
11524
11656
11805
11931
12174
12289
12331
12300
12293
12308
12160
12028
11889
11764
11643
11368
11268
11259
11271
11258
11204
11177
11192
11228
11267
11209
11269
11375
11493
11638
11797
11849
11649
11481
11439
11514
11669
11993
12168
12307
12401
12525
12631
12620
12636
12638
12588
12332
12182
12084
11985
11879
11812
11637
11497
11326
11173
11068
11000
11006
11061
11124
11155
11203
11258
11277
11263
11245
11255
11326
11464
11622
11748
11844
11917
11971
11949
11896
11833
11768
11729
11650
11562
11518
11515
11656
11698
11694
11699
11701
11646
11436
11379
11363
11396
11444
11548
11540
11528
11583
11697
11813
12014
12035
12018
11969
11836
11440
11478
11727
11993
12177
12192
12084
11968
11823
11701
11617
11462
11423
11431
11493
11537
11566
11619
11661
11675
11649
11636
11710
11734
11719
11671
11630
11664
11673
11685
11773
11938
12117
12350
12374
12393
12351
12224
11843
11614
11403
11260
11176
11037
10992
11038
11137
11275
11381
11596
11759
11923
12056
12102
11857
11617
11454
11321
11221
11182
11311
11348
11390
11462
11548
11741
11789
11798
11820
11895
12047
12053
12055
12030
11948
11863
11794
11756
11725
11700
11656
11607
11612
11632
11650
11675
11719
11721
11657
11616
11615
11581
11627
11684
11717
11717
11658
11550
11400
11334
11283
11264
11270
11387
11472
11529
11568
11641
11794
11817
11816
11811
11783
11756
11815
11818
11802
11813
11907
12098
12136
12126
12100
12096
12079
12045
12084
12097
12051
11995
11989
11964
11945
11917
11888
11545
11387
11243
11135
11120
11166
11181
11144
11074
11048
11075
11225
11251
11263
11316
11445
11608
11862
11985
12045
12020
11966
11915
11935
11943
11875
11799
11790
11757
11720
11745
11816
11873
11841
11798
11805
11818
11797
11711
11631
11565
11521
11499
11479
11540
11536
11513
11459
11429
11488
11514
11577
11669
11735
11754
11831
11884
11925
11963
11967
11826
11733
11674
11661
11672
11692
11683
11679
11745
11826
11858
11845
11821
11827
11843
11827
11685
11574
11490
11471
11518
11578
11655
11665
11689
11733
11806
11887
11874
11828
11758
11694
11552
11492
11464
11433
11417
11406
11432
11444
11440
11406
11320
11152
11180
11306
11490
11626
11698
11775
11762
11778
11838
11936
12026
12037
12031
12009
11969
11917
11727
11659
11591
11567
11605
11650
11688
11735
11775
11798
11805
11808
11812
11804
11771
11765
11792
11775
11751
11728
11722
11636
11596
11554
11527
11524
11537
11510
11458
11426
11431
11443
11535
11592
11644
11684
11707
11622
11656
11765
11905
12058
12169
12271
12289
12248
12145
12007
11743
11612
11500
11426
11381
11342
11237
11198
11208
11277
11368
11485
11554
11658
11762
11837
11936
11957
11986
11977
11941
11861
11638
11527
11513
11618
11721
11631
11570
11532
11487
11416
11346
11287
11345
11385
11425
11523
11871
12030
12122
12156
12134
12016
11806
11746
11722
11704
11654
11444
11409
11449
11503
11575
11670
11710
11778
11833
11895
11942
12035
11998
11897
11780
11707
11735
11760
11770
11801
11863
11923
11871
11731
11594
11525
11504
11568
11615
11620
11575
11501
11306
11225
11162
11129
11113
11138
11398
11553
11631
11640
11637
11761
11827
11880
11866
11821
11797
11814
11838
11863
11898
11955
12057
12069
12106
12141
12128
12083
11940
11826
11689
11570
11505
11579
11614
11629
11629
11558
11371
11301
11280
11296
11314
11309
11351
11417
11509
11647
11793
11926
11892
11883
11884
11840
11791
11782
11796
11817
11843
11898
11893
11792
11699
11637
11587
11526
11554
11620
11713
11799
11834
11730
11684
11668
11691
11778
12062
12104
12095
12072
11991
11883
11544
11370
11276
11244
11227
11250
11214
11179
11179
11215
11303
11391
11486
11540
11508
11483
11557
11620
11672
11692
11685
11609
11591
11587
11569
11588
11680
11938
12032
12094
12137
12164
12057
11926
11782
11677
11646
11691
11844
11887
11901
11922
11934
11875
11838
11787
11733
11700
11668
11644
11641
11634
11626
11625
11624
11650
11667
11663
11643
11670
11675
11692
11729
11777
11782
11716
11673
11650
11630
11603
11647
11667
11644
11586
11505
11412
11446
11586
11729
11826
11880
12077
12205
12312
12359
12353
12155
12022
11855
11633
11429
11260
10963
10839
10739
10644
10619
10775
10881
11005
11176
11302
11357
11480
11608
11777
11934
12011
12030
12060
12092
12107
12105
12094
12093
12103
12090
12064
12030
11970
11948
11962
11986
12011
12081
12107
12112
12087
12070
12043
11955
11868
11788
11685
11547
11234
11088
11015
10985
10970
10889
10864
10877
10951
11114
11302
11575
11627
11676
11739
11835
11956
11954
11933
11926
11901
11890
11924
11945
11950
11978
12019
12079
12061
12070
12067
12032
11997
11953
11941
11905
11849
11761
11500
11280
11051
10898
10825
10766
10791
10940
11102
11249
11420
11800
11946
12042
12067
12018
11769
11650
11596
11610
11704
11835
12032
12042
12019
12019
12023
11979
11926
11898
11857
11780
11525
11452
11374
11271
11208
11272
11593
11721
11866
11989
12058
12107
12047
11973
11914
11841
11735
11456
11332
11231
11155
11128
11223
11407
11642
11879
12077
12408
12486
12450
12352
12241
12136
11886
11775
11674
11546
11392
11150
11031
11008
11054
11090
11143
11179
11396
11699
11973
12178
12445
12441
12349
12247
12144
12060
11921
11758
11525
11324
11163
10950
10867
10732
10653
10761
11224
11409
11573
11724
11846
11867
11605
11441
11321
11307
11362
11788
11944
12036
12051
12005
11960
11957
11908
11900
11910
11914
11942
11961
11973
11978
11945
11859
11876
11917
11878
11822
11822
12230
12394
12447
12430
12348
11967
11699
11401
11097
10832
10638
10292
10143
10074
10067
10187
10734
11101
11461
11704
11887
12071
12308
12344
12327
12295
12251
12190
12182
12200
12259
12367
12728
12929
13044
13130
13110
12952
12489
12250
12002
11712
11363
10578
10195
9820
9423
9093
9015
9297
9801
10364
10904
11421
12290
12502
12548
12475
12369
12115
11938
11796
11694
11640
11645
11823
11927
12016
12102
12217
12503
12660
12841
13034
13214
13358
13364
13281
13062
12728
12298
11162
10592
10078
9553
9055
8738
8558
8489
8623
9040
9783
10719
11759
13324
13731
13960
14005
13891
13679
13515
13287
13014
12626
11947
10233
9529
9251
9346
9644
10002
10246
10329
10344
10439
10506
10600
10714
10807
11242
11635
12024
12329
12470
12554
12746
12836
12932
13029
13149
13425
13468
13445
13313
13081
12640
12450
12262
12069
11862
11592
11024
10813
10626
10587
10710
11373
11690
11989
12311
12511
12580
12364
12022
11738
11372
10867
9858
9554
9386
9307
9455
9887
10498
11111
11473
11631
11672
11983
12336
12671
12967
13035
12582
12220
11802
11530
11492
11542
11664
11719
11693
11556
11372
11516
11846
12205
12540
12843
12988
12862
12598
12203
11794
11467
11127
11157
11165
11146
11259
11518
12020
12200
12207
12084
11939
11800
11833
11777
11603
11348
10756
10608
10521
10510
10583
10707
11173
11427
11585
11666
11730
11764
11736
11718
11743
11882
12052
12700
13226
13537
13594
13544
13500
13422
13165
12842
12497
11555
10989
10410
9800
9237
8886
8866
9206
9732
10273
10692
11167
11212
11086
10976
10972
11039
11455
11666
11860
12026
12077
12228
12357
12463
12459
12340
12284
12402
12460
12481
12489
12497
12463
12514
12590
12643
12652
12340
12201
12044
11849
11655
11613
11880
12029
12006
11912
11859
11581
11279
10899
10526
10098
9759
9594
9677
9990
10425
10796
11136
11422
11728
12101
12620
12591
12544
12559
12804
13116
13077
12963
12838
12838
12710
12159
11785
11508
11471
11360
10949
10784
10588
10436
10307
10097
10230
10818
11766
12788
13469
13512
13146
12843
12696
12522
11961
11396
10834
10276
9670
9142
8549
8086
8420
9615
11456
14435
14737
14552
14249
13930
13439
12079
11205
10134
8838
7587
7025
7087
7363
7865
8823
10124
12737
13508
13882
14257
14752
15486
18011
18438
18019
17018
15869
13391
12287
11196
10270
9361
8290
6925
5329
3950
3219
3412
4526
6207
7717
8964
10354
13434
14500
14993
15114
15163
14939
14772
14719
14514
14142
13403
13254
13380
14094
15496
17245
18339
17100
15421
14001
13016
11115
9860
8381
6805
5148
3754
2944
2944
3748
5388
7411
9189
10477
10978
10998
11326
12182
12275
12062
11690
11072
9488
8939
9292
10418
11795
13139
14051
14337
14215
14428
14426
14066
13448
12901
13395
14577
15490
16179
16685
16132
15245
14126
12932
11541
9940
8197
4292
3250
3198
4447
6961
10475
13876
16300
17551
18019
17277
16274
15108
14051
13197
12583
9458
7646
6427
5551
5087
5833
7474
9015
9850
9953
9635
9289
9311
9731
10353
11213
12345
13550
15729
16137
16130
15915
15795
16062
16613
16019
15068
13958
12692
10994
10792
10574
10190
9934
9870
10344
12166
12971
13416
13344
12675
11679
8994
7352
5627
4495
4008
3832
4419
6224
8970
11912
14208
15903
17309
17510
17869
18760
18945
17877
15743
10816
8490
6324
4737
3999
3841
4037
4393
4706
5167
6050
7542
10131
13219
15550
18186
19031
19433
19474
19251
18521
15734
13958
12115
10579
9603
9066
8801
8637
8451
8438
8551
9199
9512
9768
10209
11003
11577
11941
12481
13051
13514
13950
14782
15617
16165
16116
15956
15550
14914
13881
10813
8812
6682
5019
4063
3907
4968
6835
8438
9408
10221
11208
12433
13296
14339
14558
14479
14391
14160
13669
12718
12794
13000
13226
13699
14328
14029
13248
12281
11390
8858
7733
6744
5718
5182
5793
7469
9611
11492
12953
14012
14707
14974
14107
13047
11720
10886
10587
11239
12005
13032
13850
14283
14389
13416
12444
11314
10267
9499
8669
7736
7614
8353
9343
10269
11550
12002
12542
13352
14174
14765
14505
14207
13976
13788
13779
14438
14505
13944
13181
12491
11236
10929
11171
11194
10915
9444
8523
7607
6690
6350
6741
7457
8223
9068
9776
10148
10361
10896
11785
12829
14016
14179
14367
14495
14290
13598
13257
12941
12598
12286
12104
12044
11989
11958
12051
12203
12239
12033
11979
11946
11917
11921
13268
14092
14327
13787
12742
10489
9557
8745
8210
7928
7547
7051
6967
7611
8625
9662
10602
11385
12067
12580
13114
13233
13317
13381
13423
13550
13968
14506
14715
14567
14201
13222
12765
12374
12077
11665
10694
10121
9299
8529
8202
8186
8489
9404
10765
11974
12690
13220
13276
13254
13152
12867
12051
11619
11400
11614
12284
13163
14322
14593
14597
14309
13711
11689
10229
8669
7353
6597
6202
6118
6608
7735
8921
9703
10281
10900
11456
12438
12790
13009
13109
13216
13558
13687
13752
13776
13907
14242
14401
14173
13747
13214
12538
11198
10692
10207
9648
9150
8923
8967
9150
9315
9659
10292
11032
12153
12409
12571
12649
12707
12999
13242
13571
14355
15407
15843
14635
13623
12611
11638
10766
9105
8134
7396
7193
7077
7025
7599
8749
9831
10573
11287
11964
12451
12757
13127
13268
13346
13317
13153
12732
12614
12524
12401
12215
11949
11714
11731
11802
11891
11904
11593
11377
11125
11090
11357
11925
12081
12254
12368
12343
12192
11587
11205
10890
10697
10831
11803
11979
12060
12138
12192
12263
12288
12059
11680
11163
10667
10019
10158
10569
11032
11478
12080
12267
12380
12377
12272
12169
12089
11987
11941
11908
11830
11616
11449
11306
11317
11492
11690
11782
11767
11766
11768
11757
11610
11696
11907
12140
12417
12657
13003
12966
12806
12566
12318
11919
11517
10907
10095
9452
9221
9282
9417
9658
10074
11144
11627
11924
12077
12169
12033
11999
12182
12452
12802
13188
13349
13087
12756
12449
12232
11839
11598
11252
10830
10369
10076
9954
10097
10274
10491
10793
11136
11560
11655
11729
11819
11904
12089
12191
12271
12313
12307
12300
12244
12200
12162
12119
12040
11995
11930
11827
11762
11761
11804
11822
11843
11953
12112
12387
12852
12827
12691
12521
12340
11848
11534
11219
10904
10592
10332
9735
9511
9680
10195
10780
11259
11589
11820
12076
12162
12245
12316
12398
12456
12404
12287
12178
12055
11989
12030
12096
12115
12181
12241
12319
12313
12301
12299
12218
11937
11423
11185
10974
10669
10253
9560
9407
9386
9656
10252
11014
11711
12194
12466
12606
12637
12633
12566
12503
12459
12135
11916
11752
11715
11802
12267
12406
12356
12158
11865
11300
11168
10955
10692
10489
10353
10527
10699
10901
11156
11402
11705
11791
11881
11906
11906
11941
12017
12061
12147
12206
12235
12264
12258
12243
12215
12190
12226
12249
12233
12218
12206
12150
11879
11717
11638
11642
11638
11452
11352
11295
11247
11198
11127
11030
11017
11059
11177
11341
11627
11799
12002
12173
12311
12406
12386
12303
12201
12067
11941
11749
11671
11530
11335
11243
11392
11510
11661
11781
11827
11803
11517
11341
11239
11141
11070
11025
11066
11119
11231
11346
11434
11497
11446
11417
11482
11607
11826
11911
11980
12021
12043
12047
12033
12003
11986
11992
12004
12028
12118
12296
12483
12663
12911
12908
12816
12728
12620
12430
11794
11419
11000
10547
10159
9821
9959
10232
10515
10721
10789
10764
11039
11223
11290
11282
11345
11483
11832
11984
12114
12178
12223
12301
12325
12307
12248
12183
12131
12043
12019
12013
11958
11862
11692
11673
11673
11671
11682
11728
11702
11675
11664
11660
11693
11834
11891
11938
11951
11976
12033
12031
11979
11878
11744
11606
11427
11381
11360
11357
11392
11521
11548
11568
11548
11474
11388
11438
11485
11495
11474
11491
11518
11521
11548
11616
11666
11760
11826
11880
11920
11928
11908
11816
11800
11827
11886
11930
11957
11986
12030
12083
12087
12091
12177
12209
12148
12019
11882
11575
11409
11297
11155
10989
10532
10333
10209
10199
10296
10465
11011
11245
11465
11654
11799
12062
12163
12230
12248
12197
12106
12050
12054
12012
11932
11902
11984
12006
12015
12021
12000
11989
11969
11967
11978
12034
12096
12122
12089
12027
11943
11876
11807
11826
11834
11800
11736
11695
11596
11488
11378
11312
11261
11173
11062
10975
10967
11060
11374
11442
11450
11467
11471
11478
11717
11871
11960
11953
11899
11819
11795
11760
11736
11749
11743
11795
11871
11952
12110
12313
12621
12677
12619
12470
12201
11873
11189
10865
10589
10362
10222
10189
10355
10574
10805
11023
11375
11504
11631
11736
11844
11985
12200
12237
12241
12219
12179
12127
12078
12010
11965
11952
11985
12045
12094
12132
12144
12124
12063
11997
11934
11887
11847
11723
11642
11559
11494
11429
11370
11357
11378
11382
11335
11299
11338
11422
11531
11621
11739
11891
12101
12139
12150
12154
12105
11983
11911
11816
11705
11603
11543
11402
11325
11295
11287
11331
11408
11409
11438
11478
11455
11338
11322
11327
11347
11388
11425
11590
11678
11772
11810
11823
11820
11803
11820
11827
11790
11737
11734
11806
11881
11958
12048
12163
12155
12129
12075
11986
11799
11744
11701
11606
11500
11391
11199
11235
11377
11549
11690
11905
11931
11877
11823
11790
11750
11590
11565
11580
11616
11662
11435
11288
11180
11150
11174
11243
11366
11412
11498
11608
11751
11934
11950
11975
11990
11984
11929
11929
11952
11981
11972
11929
11858
11847
11854
11868
11863
11872
11868
11825
11765
11712
11681
11569
11507
11443
11378
11375
11557
11665
11748
11802
11843
11927
12014
12135
12194
12210
12188
12016
11915
11854
11774
11678
11456
11366
11270
11170
11104
11075
11080
11093
11102
11110
11117
11215
11284
11339
11415
11489
11621
11657
11690
11769
11865
11982
12196
12216
12204
12202
12171
12096
12094
12098
12107
12127
12122
11883
11660
11461
11330
11240
11222
11266
11284
11315
11346
11323
11249
11282
11354
11443
11581
11873
11935
11901
11755
11559
11387
11438
11496
11512
11497
11539
11732
11772
11761
11765
11787
11874
11937
11981
11988
11993
11997
11966
11950
11964
11980
11981
11944
11904
11844
11795
11742
11684
11705
11745
11771
11754
11701
11530
11436
11390
11391
11395
11428
11503
11571
11612
11622
11628
11633
11620
11627
11645
11679
11736
11742
11767
11792
11801
11793
11834
11851
11880
11930
11969
11935
11857
11770
11694
11717
11874
11919
11931
11909
11855
11784
11460
11340
11280
11231
11185
11265
11281
11315
11369
11455
11583
11878
12048
12165
12184
12144
12046
12013
11936
11816
11658
11458
11374
11286
11209
11181
11161
11126
11135
11168
11227
11300
11395
11434
11449
11445
11477
11578
11768
11811
11878
11973
12031
11897
11890
11911
11948
11982
12035
12106
12097
12065
12017
11962
11784
11648
11564
11575
11652
11719
11709
11696
11690
11693
11700
11697
11678
11662
11646
11643
11619
11647
11690
11722
11738
11733
11668
11650
11654
11673
11714
11817
11830
11833
11842
11851
11857
11830
11792
11735
11656
11536
11313
11298
11370
11489
11596
11750
11756
11724
11734
11769
11789
11746
11664
11516
11346
11182
11048
11158
11353
11530
11618
11658
11714
11790
11884
11941
11991
12042
12027
11996
11946
11885
11798
11760
11649
11503
11409
11401
11382
11442
11549
11630
11735
11794
11760
11733
11733
11698
11652
11584
11540
11557
11625
11729
12026
12092
12126
12108
12055
11943
11838
11651
11419
11185
11033
11108
11243
11405
11570
11720
11959
12012
12015
11965
11844
11756
11692
11672
11643
11579
11534
11568
11560
11546
11544
11586
11718
11764
11805
11835
11847
11824
11810
11814
11833
11829
11837
11851
11852
11844
11803
11696
11587
11578
11597
11620
11622
11609
11494
11420
11350
11367
11465
11721
11814
11868
11904
11913
11924
11804
11735
11659
11597
11518
11422
11463
11541
11612
11649
11661
11631
11630
11654
11709
11786
11971
11958
11911
11831
11695
11533
11276
11241
11287
11365
11427
11599
11708
11776
11774
11777
11715
11627
11587
11628
11711
11809
11936
11960
12010
12027
12036
12023
11989
11954
11900
11811
11715
11479
11383
11312
11272
11301
11541
11650
11668
11675
11677
11662
11589
11499
11392
11297
11210
11199
11360
11535
11692
11855
12078
12129
12182
12201
12192
12168
12069
11985
11900
11815
11714
11545
11513
11477
11450
11470
11502
11586
11649
11749
11801
11778
11716
11725
11719
11702
11623
11297
11205
11174
11148
11166
11201
11375
11556
11752
11917
12033
12281
12364
12392
12370
12342
12310
12130
11949
11771
11574
11397
11215
11193
11173
11185
11204
11278
11403
11552
11708
11835
11935
12050
12060
12043
11979
11887
11515
11365
11347
11364
11373
11395
11452
11463
11474
11483
11530
11650
11699
11749
11768
11782
11793
11773
11778
11778
11728
11672
11574
11573
11617
11659
11686
11672
11696
11743
11785
11790
11782
11788
11787
11761
11697
11636
11615
11618
11622
11625
11658
11695
11687
11667
11678
11705
11760
11735
11643
11540
11479
11431
11469
11568
11657
11721
11751
11792
11886
11920
11937
11920
11882
11735
11619
11498
11395
11353
11358
11464
11514
11602
11673
11730
11782
11812
11852
11859
11816
11679
11635
11587
11552
11562
11639
11794
11808
11849
11894
11915
11993
12021
12068
12106
12110
12064
11905
11804
11725
11628
11498
11285
11224
11195
11222
11280
11330
11441
11514
11588
11650
11724
11884
11885
11847
11807
11750
11501
11400
11309
11228
11238
11328
11526
11593
11669
11710
11761
11923
11961
11952
11896
11825
11782
11806
11833
11832
11788
11720
11624
11603
11605
11611
11595
11641
11667
11642
11566
11525
11464
11419
11387
11286
11168
11140
11302
11414
11543
11667
11747
11822
11904
11948
12018
12101
12143
12124
12095
12117
12113
12105
12055
11929
11870
11768
11639
11541
11470
11452
11431
11403
11382
11407
11408
11415
11414
11450
11479
11491
11442
11396
11351
11330
11450
11581
11696
11772
11844
11922
12108
12169
12177
12162
12110
11873
11796
11773
11860
11946
11959
11907
11790
11641
11495
11340
11109
11097
11154
11231
11313
11436
11474
11506
11510
11523
11600
11685
11658
11605
11535
11413
11248
11203
11253
11355
11481
11740
11840
11936
12101
12256
12355
12397
12355
12281
12175
12071
12010
12052
12087
12084
12012
11880
11503
11335
11243
11235
11249
11270
11233
11193
11167
11185
11196
11226
11308
11394
11452
11525
11692
11788
11878
11939
11922
11770
11655
11532
11433
11441
11570
11858
12018
12203
12325
12339
12305
12261
12140
11969
11810
11704
11412
11235
11072
10907
10777
10678
10736
10815
10871
10897
11092
11226
11387
11609
11851
12100
12521
12704
12826
12773
12539
12009
11829
11680
11473
11294
11259
11372
11464
11596
11715
11833
11978
12001
12025
12073
12158
12258
12461
12483
12399
12276
12124
11856
11792
11714
11596
11485
11263
11174
11143
11151
11204
11246
11317
11297
11268
11208
11168
11123
11080
11074
11177
11364
11556
11763
11849
11947
12034
12026
11982
11915
11851
11778
11694
11537
11399
11242
11133
11085
11092
11171
11247
11340
11411
11445
11406
11355
11286
11236
11237
11318
11690
11910
12110
12248
12404
12554
12584
12618
12619
12554
12229
12002
11784
11558
11351
11206
11218
11287
11345
11388
11434
11538
11565
11629
11715
11751
11792
11893
11910
11896
11864
11880
11945
11960
11938
11898
11900
11903
11939
11947
11922
11867
11805
11715
11683
11643
11606
11559
11471
11394
11320
11287
11295
11274
11113
11073
11047
11040
11066
11272
11430
11571
11667
11739
11787
11829
11861
11925
12014
12150
12260
12214
12136
12062
12033
11954
11822
11697
11560
11372
11220
10982
10799
10628
10529
10562
10742
10844
11015
11219
11391
11577
11970
12152
12320
12449
12532
12520
12475
12417
12346
12270
12182
11882
11712
11576
11513
11474
11402
11343
11285
11227
11164
10898
10866
10888
10945
11033
11170
11526
11659
11765
11845
11911
12046
12137
12223
12277
12319
12377
12553
12589
12549
12410
12273
11959
11735
11515
11304
11128
10963
10938
10909
10879
10893
10975
11220
11438
11708
11915
12041
12216
12164
12038
11871
11711
11584
11388
11311
11278
11241
11213
11420
11672
11896
12078
12275
12512
12938
13005
12966
12802
12526
11703
11342
11122
11005
10891
10735
10687
10677
10691
10695
10709
10792
10882
11008
11131
11258
11390
11359
11323
11360
11457
11581
11899
12048
12155
12222
12261
12288
12278
12211
12079
11918
11643
11494
11380
11335
11279
11252
11425
11516
11567
11651
11716
11800
11893
12022
12131
12182
12191
12112
12066
12018
11938
11920
11988
12027
12024
11927
11718
11235
11088
11011
10968
11018
11180
11517
11625
11732
11829
11904
11959
11917
11799
11692
11631
11589
11522
11492
11487
11519
11549
11561
11538
11510
11446
11316
11224
11161
11129
11089
11073
11087
11150
11124
11094
11105
11230
11719
11925
12059
12163
12195
12155
11983
11957
11959
11950
11868
11716
11690
11655
11613
11627
11726
12225
12417
12507
12560
12590
12503
12403
12260
12099
11942
11635
11479
11382
11308
11257
11223
11117
11031
10975
10966
10991
11091
11133
11212
11312
11381
11394
11271
11170
11103
11081
11101
11187
11257
11369
11525
11711
11897
12249
12358
12451
12554
12636
12585
12492
12359
12196
11967
11431
11259
11109
11008
10938
10894
10916
10970
11027
11115
11224
11473
11569
11624
11645
11701
11742
11459
11338
11303
11363
11458
11598
11618
11647
11667
11716
11853
11897
11964
12005
12001
11932
11596
11455
11363
11304
11331
11504
11594
11689
11803
11892
11956
12036
12053
12039
11976
11929
11935
11926
11940
12038
12135
12190
12045
11928
11813
11678
11539
11337
11303
11306
11280
11284
11373
11396
11390
11429
11480
11533
11718
11767
11791
11775
11695
11376
11255
11185
11191
11198
11177
11228
11310
11423
11565
11694
11875
11937
11980
11980
11940
11750
11690
11647
11600
11557
11573
11652
11695
11735
11768
11792
11770
11731
11655
11590
11506
11403
11268
11269
11195
11097
11011
10957
10974
11015
11059
11069
11155
11249
11412
11582
11687
11743
11620
11534
11565
11699
11844
12172
12235
12251
12285
12357
12468
12648
12688
12698
12687
12632
12175
11858
11569
11357
11301
11308
11429
11450
11377
11283
11216
11211
11253
11290
11351
11464
11676
11703
11735
11746
11727
11684
11534
11462
11430
11505
11638
11829
11885
11900
11824
11743
11707
11684
11626
11547
11484
11429
11371
11355
11354
11389
11445
11496
11523
11531
11529
11535
11535
11543
11609
11682
11706
11684
11619
11590
11595
11589
11598
11624
11574
11485
11394
11309
11247
11136
11084
11053
11096
11213
11527
11659
11792
11973
12150
12275
12457
12550
12592
12533
12387
11964
11732
11475
11133
10856
10747
10779
10869
10981
11095
11254
11647
11802
11934
12030
12112
12174
12302
12339
12290
12178
12066
11742
11557
11382
11245
11160
11148
11262
11364
11406
11492
11590
11748
11804
11859
11939
12048
12137
12118
12065
11981
11844
11705
11381
11251
11177
11136
11088
11005
10986
11002
11015
11001
11132
11235
11349
11498
11681
11846
12121
12265
12401
12507
12567
12509
12383
12200
12055
12008
11990
11803
11669
11590
11508
11418
11206
11147
11091
11030
10984
10975
10956
10991
11058
11156
11278
11621
11708
11730
11739
11770
11874
11853
11844
11860
11850
11812
11940
12106
12256
12333
12298
11983
11771
11610
11500
11426
11347
11165
11101
11039
11019
11090
11378
11512
11573
11602
11648
11793
11823
11791
11678
11498
11312
11178
11236
11319
11422
11503
11582
11679
11811
11864
11860
11861
11939
11961
11944
11869
11796
11632
11555
11528
11590
11713
11797
11739
11753
11777
11800
11782
11706
11736
11775
11780
11754
11696
11737
11805
11846
11837
11800
11706
11626
11522
11401
11286
11106
11089
11128
11224
11335
11477
11682
11692
11643
11558
11468
11367
11347
11393
11446
11511
11743
11813
11815
11816
11804
11792
11747
11784
11859
11917
11964
12060
12053
11996
11914
11812
11721
11669
11674
11654
11601
11514
11265
11182
11196
11270
11366
11636
11749
11774
11712
11628
11605
11554
11497
11377
11224
11120
11238
11365
11514
11657
11748
11821
11829
11688
11510
11381
11288
11221
11330
11463
11568
11692
11756
11803
11832
11840
11819
11772
11717
11717
11734
11784
11892
12092
12160
12229
12236
12160
12032
11762
11660
11565
11514
11511
11535
11483
11397
11340
11302
11271
11406
11506
11591
11649
11695
11666
11629
11645
11673
11670
11561
11481
11421
11398
11395
11391
11500
11588
11639
11672
11681
11676
11723
11782
11838
11849
11792
11593
11540
11492
11475
11497
11643
11692
11718
11746
11716
11661
11507
11354
11244
11235
11321
11432
11387
11362
11417
11497
11664
11755
11847
11886
11926
11979
12042
12048
11977
11803
11648
11472
11405
11385
11354
11313
11365
11534
11557
11545
11518
11529
11668
11756
11791
11784
11767
11787
11774
11812
11834
11810
11794
11713
11669
11681
11680
11687
11649
11619
11584
11579
11571
11529
11445
11460
11462
11454
11465
11531
11571
11577
11563
11542
11579
11603
11631
11645
11640
11643
11733
11771
11763
11751
11752
11759
11740
11678
11588
11473
11345
11214
11216
11205
11176
11258
11724
11987
12195
12313
12351
12366
12243
12103
11866
11599
11354
10986
10943
11029
11181
11312
11473
11507
11516
11501
11544
11616
11753
11838
11936
12032
12162
12435
12408
12209
11910
11573
11308
11018
11042
11140
11238
11317
11384
11417
11513
11681
11783
11816
11769
11650
11494
11422
11508
11643
11596
11577
11596
11586
11533
11511
11515
11518
11563
11635
11773
11672
11443
11182
11105
11263
11354
11432
11456
11482
11592
11975
12155
12292
12357
12361
12242
12160
12022
11874
11766
11447
11276
11191
11141
11133
11176
11263
11300
11377
11439
11490
11582
11583
11666
11797
11927
12019
12012
11900
11762
11655
11667
11797
11849
11898
11897
11858
11743
11713
11641
11533
11448
11360
11420
11532
11637
11673
11661
11712
11730
11729
11668
11537
11348
11158
11299
11513
11703
11831
11860
11772
11714
11657
11603
11537
11472
11404
11365
11379
11423
11506
11516
11599
11718
11824
11889
11811
11740
11761
11852
11895
11801
11712
11606
11533
11439
11113
11023
10976
10968
10936
10922
10887
10961
11110
11308
11529
11834
11873
11872
11876
11908
12012
12035
12053
12106
12196
12271
12241
12150
12070
11986
11908
11876
11852
11821
11811
11757
11686
11531
11452
11354
11248
11189
11256
11343
11438
11543
11613
11569
11498
11460
11434
11437
11472
11511
11492
11499
11541
11595
11686
11726
11773
11811
11816
11801
11795
11793
11796
11774
11741
11764
11814
11865
11940
12053
12152
12269
12228
12141
12044
11962
11734
11608
11489
11360
11266
11170
11119
11063
10965
10821
10701
10632
10666
10703
10733
10761
10905
11129
11378
11600
11795
11970
12193
12180
12162
12169
12166
12226
12283
12323
12303
12251
12188
12173
12121
12004
11813
11643
11488
11476
11427
11336
11212
10985
10976
11069
11123
11113
11125
11261
11344
11407
11471
11532
11630
11676
11724
11741
11743
11740
11751
11808
11858
11900
11897
11874
11860
11845
11845
11848
11821
11783
11762
11766
11752
11734
11677
11652
11642
11624
11636
11658
11708
11760
11777
11768
11761
11723
11676
11625
11586
11577
11543
11508
11465
11414
11360
11238
11265
11339
11423
11487
11536
11656
11669
11678
11712
11774
11836
11865
11875
11868
11867
11828
11692
11637
11633
11619
11582
11463
11400
11334
11273
11229
11298
11325
11332
11344
11370
11365
11337
11343
11440
11602
11789
12166
12389
12572
12623
12616
12612
12450
12264
12045
11848
11736
11446
11280
11068
10885
10716
10492
10245
10223
10276
10439
10666
11122
11291
11442
11552
11626
11775
11880
11965
12049
12133
12230
12417
12535
12609
12587
12494
12210
12069
11923
11767
11628
11503
11408
11434
11382
11234
11094
11043
11116
11249
11374
11470
11580
11621
11691
11802
11901
11965
12064
12070
12070
12065
12072
12045
12085
12079
12018
11925
11860
11851
11863
11833
11744
11634
11252
11022
10792
10481
10147
9964
10270
10637
10989
11305
11549
11703
11875
11937
11926
11865
11806
11770
11843
11931
12017
12067
12080
11994
11982
12036
12200
12438
12663
12654
12596
12493
12347
11997
11807
11576
11385
11229
11026
10399
10122
10044
10010
10020
10254
10467
10779
11165
11492
11689
11934
12040
12170
12298
12426
12490
12461
12406
12318
12225
12163
12080
12038
11997
11949
11910
11944
12005
12058
12123
12121
12045
11921
11714
11481
11240
10967
10464
10316
10242
10246
10301
10563
10723
10818
10966
11226
11532
11940
12008
12043
12061
12033
11846
11813
11827
11849
11872
11992
12031
12038
12044
12059
12089
12243
12339
12429
12475
12495
12693
12782
12809
12783
12678
12511
11962
11649
11331
10959
10574
9859
9613
9487
9537
9664
9873
10245
10761
11163
11446
11696
12017
12047
11977
11862
11704
11312
11172
11158
11243
11329
11489
11876
12124
12433
12791
13104
13607
13740
13789
13688
13427
13097
12296
11737
11077
10459
10009
9320
8963
8820
9029
9496
9891
10193
10454
10790
11205
11618
12387
12801
13113
13285
13385
13343
13152
12907
12694
12534
12328
11808
11539
11429
11622
11939
12107
11958
11815
11719
11671
11554
11292
11129
10920
10596
10189
9473
9306
9337
9447
9627
9989
10391
10700
10984
11264
11512
11989
12197
12291
12277
12254
12361
12475
12599
12921
13662
14759
16281
16337
16062
15514
14831
13242
12295
11247
10118
8963
7850
6958
6196
5695
5690
5969
6258
6695
7566
8645
9671
10555
12106
12842
13624
14482
15152
15546
15613
15517
15183
14746
13668
13141
12644
12003
11372
10833
10154
10028
10212
10677
11140
12094
12492
12631
12665
12690
12716
12683
12680
12343
11597
10283
8175
7982
7928
8031
8248
8775
9721
10808
11913
12862
13239
13199
12982
12664
12203
11419
10144
8016
7985
8707
9845
11239
12479
13413
14119
14543
14977
15026
14860
14466
14176
14339
14835
14626
14141
13341
12436
11457
11265
11142
10653
9823
8984
8304
7807
7696
8157
8792
9523
10274
11597
11804
11883
12168
12562
11959
11090
10347
9773
9240
9123
9505
10340
11359
12308
13508
13645
13742
13791
13781
13585
13288
12962
12547
12116
11185
10618
10132
9928
9857
9994
10376
10811
11286
12533
13705
15282
16544
17276
16828
15930
14734
13217
11664
8561
6792
4820
3145
2300
2585
3701
5602
7688
9548
11116
12246
12905
13352
14045
15481
15925
16599
17031
17013
15973
15143
14287
13276
12041
10581
7548
6071
5289
5479
6086
6678
7371
8435
9780
11184
12321
13118
13635
13741
13829
14307
15342
16076
16197
15722
15424
15092
14621
14018
12923
11994
10491
9291
8504
7476
6456
6518
7702
8938
9741
10261
10678
11423
12107
12721
13192
13506
13956
13887
13500
13034
12220
11160
9399
8670
7722
7136
7466
8455
9725
10951
11933
12454
12491
12122
11149
11054
11488
12335
13154
13859
13770
13512
13239
13006
12483
12311
12086
11851
11704
11507
11138
11169
11290
11502
11990
13212
13544
13618
13435
13154
12993
12652
12243
11681
10931
10077
8945
8653
8890
9674
10560
11227
11518
11468
11368
11437
11479
11281
11034
11045
11163
11670
12005
12097
11795
11229
10804
10822
10926
11149
11330
11601
12229
13288
14253
15013
15406
15311
14853
14294
13642
12777
10194
8588
6821
5346
4867
5370
6606
7924
9114
10273
11254
11958
12415
13426
13962
14284
14405
14613
15024
14824
14328
13701
12970
12097
10168
9591
9428
9398
9364
9379
9545
9757
10048
10440
10866
11254
11845
12052
12242
12384
12520
12847
12906
12922
13045
13406
13745
13579
13309
13067
12628
12014
10946
10578
10232
9888
9606
9357
9111
9112
9434
9961
10533
11003
11724
11950
12048
12059
12017
11994
11961
11969
12050
12106
12125
12104
12060
12082
12245
12424
12543
12482
12495
12570
12625
12832
12954
12912
12636
12132
11471
9930
9251
9125
9469
9864
10122
10382
10617
10772
10895
11486
11902
12095
12105
12029
12363
12737
13017
13174
13271
13350
12899
12439
11920
11331
10735
9497
9038
8720
8616
8839
9403
10086
10724
11245
11572
11788
12126
12253
12328
12309
12252
12337
12450
12538
12558
12528
12495
12472
12461
12355
12207
12007
11682
11576
11554
11667
11947
12201
12317
12240
12110
11902
11742
11574
11471
11293
11084
10866
10443
10364
10413
10596
10800
10980
11356
11528
11639
11686
11737
11838
11867
11889
11873
11875
11952
12064
12063
12041
12007
11957
11668
11457
11328
11262
11256
11302
11426
11481
11586
11732
11915
12084
12047
11947
11819
11672
11482
11403
11390
11405
11419
11394
11265
11286
11397
11567
11757
12044
12103
12178
12180
12107
11986
11745
11703
11743
11812
11795
11542
11411
11315
11286
11475
12396
12751
12910
12856
12695
12528
12034
11654
11237
10784
10280
9316
8999
9014
9373
9802
10168
10531
10857
11150
11409
11918
12101
12235
12323
12371
12386
12385
12319
12245
12200
12240
12233
12158
12069
12064
12149
12320
12358
12308
12227
12132
12044
11756
11564
11382
11293
11295
11321
11366
11468
11565
11608
11629
11784
11868
11797
11622
11425
11132
11044
10972
11005
11112
11219
11337
11408
11439
11420
11425
11553
11511
11481
11503
11587
11946
12137
12257
12310
12406
12564
12659
12576
12423
12205
12005
11613
11369
11148
11039
11037
11133
11261
11210
11050
10870
10813
10848
10845
10877
10964
11088
11333
11533
11774
12035
12239
12348
12277
12172
12124
12107
12002
11683
11619
11558
11509
11453
11344
11037
11038
11216
11488
11755
12077
12119
12128
12154
12224
12388
12471
12306
12092
11934
11842
11463
11177
10929
10743
10614
10449
10383
10385
10543
10904
11322
11862
11950
11994
12029
12050
12019
12008
11996
11992
12022
12060
11958
11874
11813
11776
11804
12031
12142
12229
12287
12315
12197
12060
11880
11660
11425
11215
10769
10611
10499
10504
10594
10732
10877
11054
11195
11324
11491
11722
11830
11955
12093
12232
12356
12351
12300
12240
12184
12043
11937
11807
11667
11484
11288
11063
11077
11151
11242
11364
11603
11637
11628
11643
11705
11771
11904
11985
12084
12186
12245
12186
12053
11908
11757
11612
11431
11130
11072
11119
11241
11336
11581
11629
11672
11709
11768
11844
11844
11783
11689
11565
11415
11126
10931
10808
10848
10939
11250
11330
11408
11470
11517
11551
11545
11533
11635
11790
11909
12110
12183
12195
12194
12187
12094
12027
11921
11776
11618
11497
11309
11373
11459
11531
11611
11723
11742
11782
11841
11897
11917
11762
11671
11564
11449
11303
11039
10992
11019
11105
11236
11376
11622
11686
11736
11848
11941
11976
11991
12050
12105
12123
12030
11960
11908
11865
11814
11744
11502
11373
11290
11283
11320
11381
11413
11489
11560
11562
11512
11356
11337
11368
11413
11478
11567
11557
11560
11571
11626
11755
11823
11876
11903
11895
11899
11886
11897
11887
11857
11801
11635
11587
11549
11506
11448
11412
11444
11488
11533
11557
11583
11686
11770
11878
11987
12084
12161
12183
12234
12312
12380
12406
12261
12093
11921
11685
11430
11001
10808
10651
10571
10419
10253
10287
10486
10730
10969
11158
11410
11545
11683
11790
11866
11957
12097
12138
12190
12219
12230
12139
12118
12144
12170
12199
12293
12345
12346
12262
12113
11943
11597
11377
11193
11094
11075
10979
10906
10840
10815
10808
10808
10924
11056
11207
11417
11626
11883
11918
11898
11825
11709
11426
11367
11448
11631
11825
11917
11910
11904
11891
11894
11874
11880
11906
11915
11921
11923
11927
11900
11863
11839
11801
11777
11755
11749
11739
11716
11684
11667
11641
11636
11623
11618
11646
11693
11681
11676
11667
11677
11664
11642
11613
11608
11613
11598
11548
11537
11514
11496
11491
11434
11398
11356
11327
11375
11462
11716
11840
11993
12156
12247
12142
12017
11920
11839
11800
11819
11794
11679
11491
11272
11038
10498
10261
10195
10307
10497
10987
11152
11235
11301
11385
11571
12002
12169
12276
12334
12358
12326
12284
12254
12221
12174
12077
12019
11945
11821
11673
11539
11303
11140
10992
10975
11066
11319
11426
11560
11732
11878
11940
11973
11996
12015
12005
11979
11868
11807
11736
11650
11552
11506
11502
11516
11544
11512
11470
11453
11444
11439
11449
11460
11366
11318
11314
11342
11400
11499
11745
11801
11840
11882
11923
11964
11942
11901
11847
11789
11736
11597
11507
11440
11427
11459
11570
11622
11671
11729
11749
11762
11791
11847
11861
11846
11867
11954
11996
12024
11987
11939
11720
11594
11425
11258
11091
10940
10795
10836
10893
10964
11036
11160
11244
11339
11428
11540
11683
11869
11964
12025
12020
11957
11853
11819
11797
11780
11726
11699
11732
11768
11789
11773
11758
11743
11785
11827
11860
11926
11980
11937
11933
11976
12016
12006
11858
11749
11603
11478
11384
11313
11275
11247
11215
11162
11210
11297
11409
11519
11613
11703
11901
11993
12036
12045
12083
12116
12081
12059
12048
12006
11921
11685
11559
11476
11455
11496
11715
11780
11794
11793
11820
11877
11928
11872
11781
11672
11570
11630
11715
11785
11832
11850
11763
11716
11744
11822
11919
11983
11981
11947
11932
11940
11937
11827
11766
11711
11657
11613
11608
11614
11588
11576
11566
11557
11593
11592
11593
11615
11628
11554
11525
11474
11432
11437
11510
11646
11646
11626
11590
11556
11638
11692
11773
11852
11874
11856
11877
11951
12068
12195
12244
12005
11881
11787
11693
11583
11346
11269
11288
11351
11422
11488
11594
11641
11624
11606
11639
11728
11758
11789
11816
11865
11890
11921
11949
11960
11981
12017
11993
11931
11873
11819
11750
11699
11659
11653
11643
11638
11656
11732
11789
11858
11937
11975
11935
11889
11820
11748
11673
11613
11672
11765
11874
11932
11937
11822
11761
11701
11642
11606
11657
11788
11822
11854
11865
11844
11761
11684
11622
11623
11669
11752
11732
11698
11703
11738
11736
11691
11632
11568
11490
11396
11261
11230
11288
11423
11588
11771
12022
12032
12054
12030
11955
11730
11603
11503
11464
11492
11619
11671
11682
11670
11641
11645
11704
11760
11782
11751
11691
11665
11717
11829
12018
12172
12250
12258
12192
12130
12063
11966
11652
11500
11379
11274
11226
11267
11460
11539
11592
11623
11613
11568
11515
11445
11412
11437
11532
11609
11696
11785
11861
11918
12074
12136
12148
12120
12091
12004
11942
11919
11918
11891
11826
11706
11651
11618
11591
11578
11570
11592
11617
11616
11617
11648
11669
11716
11760
11775
11768
11709
11701
11712
11729
11731
11773
11889
11986
12026
12092
12137
12073
12045
12020
11992
11964
11844
11733
11549
11353
11229
11196
11290
11391
11518
11605
11615
11512
11490
11482
11509
11556
11613
11575
11530
11521
11600
11743
12008
12025
11967
11878
11779
11678
11676
11737
11823
11876
11907
12059
12115
12096
12074
12044
11918
11850
11795
11748
11715
11669
11652
11658
11669
11688
11714
11798
11831
11857
11890
11919
11914
11877
11829
11767
11702
11663
11607
11584
11577
11570
11542
11559
11573
11600
11596
11570
11565
11611
11649
11702
11759
11785
11799
11781
11770
11749
11724
11616
11505
11430
11396
11409
11448
11603
11668
11701
11725
11750
11791
11767
11743
11746
11759
11776
11730
11702
11670
11588
11519
11618
11683
11747
11797
11833
11854
11823
11797
11800
11849
11903
11908
11865
11802
11741
11724
11593
11498
11428
11355
11250
11178
11301
11425
11507
11579
11656
11851
11961
12012
11988
11957
11980
11939
11824
11659
11503
11399
11300
11290
11329
11392
11461
11649
11759
11895
12022
12113
12129
12003
11921
11860
11816
11792
11816
11818
11759
11695
11690
11717
11713
11658
11597
11552
11528
11548
11575
11604
11661
11732
11919
12001
12079
12139
12154
12178
12190
12142
12067
11985
11887
11713
11629
11598
11576
11548
11525
11496
11512
11540
11524
11493
11472
11502
11545
11574
11559
11508
11519
11546
11581
11615
11592
11562
11677
11784
11808
11772
11797
11794
11767
11741
11781
11847
11959
11956
11920
11866
11774
11568
11472
11439
11460
11492
11540
11576
11573
11574
11600
11639
11692
11751
11842
11936
11973
12007
11991
11926
11873
11828
11806
11766
11765
11783
11784
11797
11889
11944
11952
11933
11896
11879
11735
11616
11525
11477
11478
11595
11684
11816
11947
11992
11751
11627
11511
11401
11307
11239
11289
11408
11544
11691
11837
12109
12262
12395
12491
12566
12636
12744
12725
12615
12474
12343
12070
11805
11517
11270
11112
11070
11090
11059
11055
11124
11229
11290
11268
11301
11367
11451
11626
11704
11783
11887
11950
11936
11733
11624
11596
11700
11833
11966
11940
11882
11779
11638
11545
11591
11701
11805
11912
11996
12007
11959
11831
11627
11455
11488
11558
11594
11601
11606
11638
11799
11830
11826
11822
11822
11754
11683
11629
11620
11634
11655
11676
11711
11760
11804
11832
11906
11926
11933
11919
11918
11961
11954
11915
11865
11789
11655
11462
11464
11492
11489
11418
11316
11298
11288
11295
11350
11454
11709
11831
11941
12021
12081
12187
12194
12217
12246
12253
12223
12181
12174
12144
12080
11999
11868
11803
11747
11655
11595
11434
11244
11116
11080
11136
11227
11274
11357
11554
11813
12049
12360
12377
12281
12124
11945
11790
11487
11351
11284
11281
11362
11492
11570
11646
11749
11875
12086
12163
12250
12330
12371
12365
12217
12148
12045
11923
11814
11541
11428
11363
11259
11156
11100
11113
11179
11315
11459
11563
11684
11744
11802
11866
11933
12022
12086
12114
12106
12093
12107
12111
12098
12091
12041
11905
11619
11521
11415
11306
11239
11258
11319
11391
11480
11530
11521
11486
11467
11474
11467
11422
11378
11446
11535
11620
11666
11637
11456
11388
11430
11599
11851
12451
12683
12814
12874
12892
12874
12628
12434
12236
12031
11847
11487
11359
11305
11288
11306
11346
11528
11619
11642
11649
11626
11418
11278
11197
11164
11135
11129
11167
11136
11113
11207
11362
11753
11956
12194
12421
12597
12699
12649
12600
12547
12465
12357
12126
12045
12000
11989
12002
11970
11887
11792
11682
11523
11342
11125
11144
11251
11379
11477
11438
11295
11129
10985
10913
11063
11187
11297
11425
11571
11728
11980
12099
12196
12253
12339
12497
12526
12560
12567
12495
12359
11942
11766
11621
11549
11532
11522
11527
11485
11419
11387
11371
11326
11268
11207
11163
11120
11047
11100
11209
11359
11521
11810
11912
12009
12116
12258
12391
12526
12464
12336
12158
11962
11547
11454
11449
11428
11409
11421
11531
11615
11691
11738
11764
11750
11727
11799
11935
12066
12241
12249
12238
12261
12298
12332
12298
12216
12169
12171
12153
11967
11811
11669
11505
11351
11237
11062
11046
11095
11184
11251
11275
11197
11128
11058
11028
11037
11040
11119
11269
11416
11525
11716
11811
11937
12088
12234
12474
12606
12708
12746
12735
12708
12625
12566
12467
12372
12265
12000
11770
11516
11309
11216
11302
11285
11140
10912
10712
10571
10427
10428
10457
10530
10660
11002
11245
11534
11801
12061
12314
12756
12929
13070
13174
13353
13460
13304
13130
13093
13102
13043
12589
12268
11916
11538
11185
10701
10610
10648
10773
10899
11086
11129
11131
11126
11139
11171
11091
11109
11174
11258
11352
11526
11595
11683
11804
11902
11983
12040
11999
11963
11891
11814
11792
11830
11886
11929
11960
11967
11959
11951
11942
11967
11994
11992
11971
11935
11917
11857
11637
11556
11514
11479
11485
11529
11658
11729
11806
11843
11861
11952
11897
11807
11746
11731
11711
11625
11584
11561
11564
11550
11475
11432
11445
11500
11584
11674
11651
11651
11736
11847
11926
11968
11989
12017
12040
12047
11990
11958
11900
11842
11845
11912
11955
11949
11931
11841
11727
11669
11691
11715
11755
11778
11740
11710
11658
11588
11519
11488
11537
11533
11540
11533
11421
11267
11313
11405
11513
11623
11730
11947
11980
11988
12025
12076
12201
12251
12306
12366
12414
12426
12359
12221
12021
11816
11625
11301
11208
11206
11271
11352
11423
11483
11549
11544
11545
11587
11679
11709
11743
11807
11893
11985
12006
11975
11896
11829
11770
11745
11777
11789
11791
11773
11620
11463
11288
11147
11030
10914
10923
10996
11116
11263
11442
11807
11975
12133
12282
12404
12544
12546
12507
12424
12329
12208
12125
12080
12038
11980
11892
11650
11536
11498
11543
11589
11433
11176
10919
10785
10798
10875
11203
11402
11566
11697
11821
11980
11981
11977
11991
12022
12039
12088
12137
12224
12296
12361
12349
12249
12104
11986
11913
11855
11882
11958
12002
11993
11919
11689
11558
11430
11347
11297
11184
11074
10993
10946
10872
10894
11392
11706
12014
12319
12589
12843
12807
12721
12632
12508
12315
11712
11448
11218
11039
10924
10892
10924
10974
11049
11188
11561
11729
11879
12054
12235
12383
12457
12452
12410
12300
12099
11541
11289
11105
10978
10882
10854
10978
11114
11291
11472
11648
11944
12036
12130
12223
12296
12400
12394
12332
12171
12028
11893
11676
11607
11538
11481
11438
11501
11596
11680
11729
11708
11627
11506
11474
11477
11554
11678
11979
12162
12298
12413
12441
12388
12165
12067
12010
11963
11917
11731
11572
11454
11380
11353
11354
11424
11557
11620
11612
11600
11574
11589
11636
11713
11812
11995
11941
11858
11814
11795
11739
11586
11545
11491
11440
11419
11370
11415
11516
11636
11722
11866
11941
11998
12074
12193
12324
12389
12315
12209
12046
11865
11699
11639
11538
11471
11423
11382
11417
11421
11425
11439
11450
11483
11521
11585
11685
11766
11811
11828
11873
11964
12043
12133
12288
12314
12272
12204
12143
11981
11802
11713
11758
11799
11773
11583
11476
11386
11307
11261
11270
11297
11289
11271
11285
11362
11580
11711
11833
11921
11995
12127
12178
12227
12261
12234
12008
11863
11750
11663
11555
11466
11515
11584
11638
11647
11563
11429
11382
11324
11327
11379
11451
11593
11609
11609
11634
11729
12021
12117
12165
12201
12248
12306
12270
12294
12284
12228
12141
11882
11733
11593
11399
11200
10983
10998
11076
11199
11328
11452
11701
11868
12025
12126
12150
12036
12006
11946
11854
11787
11782
11827
11792
11729
11654
11586
11568
11479
11384
11395
11494
11584
11670
11809
11959
12076
12192
12319
12423
12578
12744
12894
12833
12666
12473
12228
11942
11662
11162
10999
10889
10809
10804
10881
10890
10915
10938
10962
11052
11138
11248
11361
11468
11570
11639
11657
11674
11678
11647
11632
11748
11907
12030
12096
12134
12155
12113
12056
12035
12020
12001
12046
12104
12157
12183
12219
12261
12246
12243
12291
12349
12270
12169
12051
11909
11757
11467
11352
11304
11291
11291
11277
11155
11142
11201
11276
11364
11490
11480
11396
11334
11328
11344
11369
11431
11535
11659
11786
12005
12101
12171
12138
11987
11823
11826
11833
11855
11916
12030
12264
12267
12160
12025
11951
11906
11951
12008
12015
11975
11950
11903
11779
11659
11608
11629
11667
11632
11541
11436
11359
11244
10897
10772
10745
10814
10907
11047
11137
11227
11321
11478
11999
12222
12357
12455
12510
12521
12478
12462
12476
12427
12336
12115
11967
11836
11696
11569
11442
11344
11413
11522
11639
11729
11891
11967
11967
11922
11874
11763
11697
11660
11615
11539
11451
11304
11226
11106
11014
10993
11241
11447
11666
11884
12078
12218
12381
12467
12545
12586
12579
12373
12295
12280
12274
12224
11900
11678
11439
11242
11116
11081
11209
11264
11278
11320
11467
11693
11678
11554
11345
11105
10902
10977
11294
11585
11726
11704
11602
11575
11585
11643
11749
11872
12091
12195
12279
12320
12319
12293
12254
12240
12258
12315
12413
12399
12307
12176
12066
11979
11745
11540
11321
11148
10982
10696
10637
10650
10781
10981
11170
11556
11734
11890
12052
12200
12276
12279
12312
12342
12340
12332
12310
12242
12118
12007
11890
11604
11418
11301
11287
11301
11397
11387
11300
11285
11314
11352
11447
11535
11624
11661
11701
11890
11971
12010
12024
12059
12057
12009
11979
11880
11691
11504
11366
11386
11437
11507
11561
11680
11733
11771
11771
11745
11672
11450
11342
11300
11374
11547
11910
12043
12123
12146
12122
12085
11983
11973
12021
12091
12176
12139
12037
11844
11600
11397
11165
11133
11116
11148
11229
11338
11642
11749
11819
11902
12019
12180
12192
12212
12208
12167
12115
12068
12064
12000
11922
11872
11878
11863
11814
11785
11808
11797
11718
11649
11618
11595
11527
11458
11479
11499
11514
11525
11531
11536
11524
11531
11552
11593
11609
11581
11615
11674
11696
11603
11534
11501
11513
11562
11625
11721
11765
11797
11808
11800
11863
11918
11952
11954
11920
11835
11805
11765
11742
11723
11712
11672
11631
11632
11637
11606
11599
11638
11687
11741
11802
11841
11902
11900
11896
11905
11964
12000
11988
11980
12001
12001
11997
11964
11905
11871
11826
11749
11649
11626
11604
11603
11601
11628
11637
11639
11674
11767
11868
12001
11919
11791
11675
11570
11370
11332
11340
11352
11368
11421
11661
11757
11826
11881
11941
11873
11711
11540
11365
11247
11226
11222
11183
11190
11270
11379
11628
11763
11859
11932
12007
12085
12097
12087
12072
12037
12012
11917
11881
11882
11888
11901
11927
11908
11891
11866
11843
11796
11775
11765
11765
11768
11790
11847
11883
11893
11881
11845
11775
11750
11709
11695
11683
11688
11684
11666
11653
11649
11660
11656
11660
11682
11704
11724
11747
11798
11835
11874
11912
11917
11876
11844
11807
11768
11747
11778
11777
11751
11725
11714
11719
11699
11663
11665
11674
11700
11715
11709
11709
11718
11713
11694
11676
11671
11673
11679
11667
11566
11484
11431
11408
11408
11519
11580
11652
11717
11752
11763
11841
11889
11908
11901
11874
11797
11761
11745
11754
11792
11903
11996
11979
11915
11772
11612
11426
11468
11526
11554
11570
11592
11631
11712
11775
11784
11773
11668
11626
11592
11570
11593
11766
11844
11904
11931
11929
11902
11858
11889
11946
11985
12038
12087
12154
12217
12301
12357
12367
12187
12020
11892
11768
11621
11345
11220
11113
11033
10949
10741
10709
10704
10764
10898
11079
11463
11590
11649
11675
11785
12113
12218
12320
12398
12435
12408
12220
12093
11958
11853
11799
11829
11901
11990
12033
12007
11731
11546
11388
11289
11284
11375
11572
11611
11637
11654
11656
11701
11757
11791
11833
11874
11919
11970
11978
12027
12097
12144
12103
12096
12111
12119
12139
12169
12130
12071
12010
11914
11796
11499
11350
11210
11122
11034
10834
10850
10951
11041
11086
11181
11414
11545
11660
11738
11811
12001
12068
12087
12082
12065
12026
11922
11879
11890
11905
11903
11886
11924
11973
11997
12010
12059
12095
12130
12143
12108
12051
11915
11840
11770
11711
11614
11418
11384
11343
11303
11259
11202
11183
11189
11244
11349
11422
11453
11512
11590
11680
11737
11854
11901
11925
11931
11960
12021
12196
12265
12298
12271
12227
12045
12012
12017
12022
11965
11890
11624
11447
11297
11115
10933
10922
10985
11064
11183
11387
11664
12120
12252
12356
12466
12555
12458
12350
12280
12158
11988
11811
11822
11810
11808
11782
11678
11229
10938
10651
10460
10368
10507
10756
11064
11326
11543
11673
11953
12128
12246
12269
12197
12021
11993
12029
12095
12165
12302
12342
12358
12364
12374
12397
12376
12339
12277
12193
12084
11715
11525
11400
11343
11283
11231
11147
11097
11017
10952
10929
11111
11296
11488
11617
11665
11666
11751
11833
11908
11957
11967
11978
11993
12017
12070
12147
12235
12218
12213
12206
12180
12161
12073
12021
11972
11910
11844
11667
11617
11557
11494
11448
11420
11409
11408
11415
11414
11386
11190
11043
10974
11034
11172
11307
11366
11447
11609
11876
12219
12855
13036
13092
13066
13018
12702
12428
12094
11725
11365
11015
10322
10134
10082
10124
10185
10461
10820
11253
11653
11983
12401
12524
12662
12774
12837
12891
12904
12818
12625
12359
12086
11638
11426
11205
11007
10879
10785
10953
11119
11294
11461
11571
11785
11901
12021
12118
12174
12208
12238
12218
12160
12090
11967
11666
11571
11541
11557
11606
11764
11764
11701
11647
11582
11523
11461
11451
11478
11541
11625
11913
11917
11844
11783
11758
11738
11755
11741
11718
11672
11629
11523
11445
11410
11456
11547
11676
11757
11828
11896
11938
11956
11860
11848
11890
11909
11921
11913
11890
11848
11803
11769
11788
11866
11870
11896
11948
11991
12125
12205
12273
12328
12301
12205
11961
11854
11747
11662
11595
11441
11326
11220
11100
10987
10753
10713
10700
10737
10875
11083
11479
11669
11866
12017
12148
12341
12417
12475
12495
12479
12478
12443
12398
12346
12275
12219
12058
11969
11855
11683
11455
11184
11229
11310
11449
11628
11738
11702
11555
11436
11369
11267
10948
10700
10561
10594
10724
10800
10869
10981
11194
11475
11762
12121
12221
12304
12395
12488
12547
12486
12465
12515
12601
12698
12619
12438
12340
12375
12474
12480
12386
12177
11921
11683
11427
10899
10779
10706
10620
10520
10520
10721
10898
11025
11142
11328
11786
11963
12020
12014
12034
12190
12246
12298
12347
12371
12515
12509
12447
12365
12211
11966
11295
10978
10737
10490
10317
10652
10985
11362
11774
12191
12511
12857
12909
12763
12527
12220
11386
11078
11126
11484
11885
12692
13038
13039
12834
12616
12438
12042
11665
11111
10487
9873
9390
9280
9435
9671
9943
10239
10990
11392
11673
11916
12224
12714
12784
12860
12921
12916
12900
12682
12421
12143
11928
11794
11797
12249
12994
13653
13966
13836
13511
13215
12993
12611
12031
10220
9191
8219
7647
7744
8242
9070
9915
10639
11171
11570
12004
12761
12866
12710
12325
11770
10221
9441
9070
9217
9623
9929
10259
10689
11398
12303
13734
14096
14336
14564
14770
15229
15115
14651
14040
13300
12422
10707
10179
9783
9550
9607
9741
9808
10032
10477
11160
13282
14189
14866
15283
15359
14208
13260
12177
11081
10003
9085
8537
8417
8497
9132
9871
10628
11718
12839
13480
13595
13590
14098
14246
14078
13611
12826
11401
10604
9568
8659
8027
7613
7655
7999
8389
8763
9047
9292
9694
10370
11215
12036
13029
13508
14071
14774
15320
15666
15425
15038
14435
13754
12906
12384
11532
10506
9398
8399
7726
7522
7929
8917
10236
12510
13376
14280
14714
14548
14059
13144
12841
12740
12694
12503
11486
10880
10777
10726
10544
10417
10577
10653
10632
10341
9862
10028
11614
12268
12452
12454
12628
14164
14586
14200
13220
12093
10913
8149
6963
6548
6744
7083
7380
7666
8197
9031
10214
11854
13573
15068
17576
18070
17926
17213
16166
15041
12849
11853
11274
10791
10253
9593
9777
10743
11785
12545
13022
13022
11493
10813
10486
10421
11052
11836
12006
11461
11135
11694
12643
13513
13382
13264
13209
13086
12942
12238
11840
10952
9099
6901
4881
3351
2796
3465
5133
7595
9989
11906
14459
14946
15190
15416
15509
15341
14258
13457
12487
11617
10904
10910
11352
11887
12325
12468
12398
11976
11794
11473
10919
10338
9962
10318
11550
13537
15454
16345
16010
15610
15183
14605
13980
13269
10435
8879
7396
6355
6364
7380
8918
10393
11648
13010
14063
14935
15089
14813
14098
12969
10080
8947
8173
7647
7004
6285
6052
6541
7608
8726
9660
10433
11134
12053
13149
14599
14807
14828
14770
14726
14080
13467
12857
12445
12101
12135
12485
12864
13361
14014
14550
15003
14802
14283
13487
12459
10123
9441
9453
9647
9480
8988
8615
8246
7921
7548
7620
8387
9581
10694
11502
11970
12093
12453
12720
13055
13455
13852
13321
12468
11406
10315
9601
9507
9802
10134
10063
10248
10758
11333
11630
11826
13049
13569
14050
14978
15803
16579
16830
17048
16736
15917
14733
11682
10101
8662
7208
5745
4413
3849
4432
5841
7573
9055
10093
10885
12223
12515
12543
12502
12653
12924
13264
13219
13040
12713
12462
12528
12517
12453
12359
12305
12212
12165
12108
12034
12050
12170
12958
12986
12721
12235
11745
11207
11244
11290
11302
11340
11384
11835
12177
12632
13288
13986
14054
13667
13200
12595
11871
10084
9126
8172
7230
6679
6743
7348
8430
9575
10526
11287
11853
12274
13242
13398
13330
13167
13000
12840
12610
12508
12318
12102
12014
12483
12917
13065
12989
12753
12217
11911
11661
11493
11305
11075
10356
10151
10394
10996
11639
12208
12179
12270
12670
13110
13312
13011
12572
12083
11726
11330
10640
10559
10444
10148
9794
9411
9149
9325
9837
10442
11497
11870
12079
12158
12201
12210
11907
11729
11666
11679
11749
12014
12200
12349
12444
12494
12413
12303
12206
12235
12249
12297
12716
12805
12823
12868
12850
12659
12541
12235
11811
11473
11147
10517
10126
9887
9859
10007
10288
10521
10633
10499
10464
10589
10766
11267
11520
11822
12232
12552
12692
12626
12586
12543
12456
12349
12074
11877
11653
11410
11215
11194
11565
11719
11805
11854
11909
12009
12090
12182
12221
12236
12387
12503
12719
12893
13021
13141
13233
12919
12374
11752
11102
9906
9366
8979
8782
8795
9108
9534
9907
10271
10611
10988
11403
11830
12575
12840
12955
12946
12858
12631
12541
12379
12148
11976
11984
11904
11771
11646
11535
11659
12313
12358
12203
11966
11738
11535
11393
11449
11483
11450
11362
11220
11175
11176
11265
11358
11294
11276
11317
11420
11486
11594
12052
12305
12462
12536
12521
12391
12326
12243
12148
12056
11919
11469
11245
11134
11139
11170
11449
11575
11617
11569
11411
10814
10657
10740
10970
11238
11486
11916
12062
12130
12135
12133
12185
12320
12472
12522
12540
12649
12814
12782
12702
12558
12374
11796
11470
11210
10899
10570
10359
10330
10541
10813
11039
11182
11404
11537
11559
11510
11471
11506
11498
11552
11687
11883
12010
12123
12154
12168
12087
11940
11753
11714
11685
11603
11474
11324
11191
11288
11486
11667
11758
11776
11802
11914
12104
12279
12390
12358
12313
12265
12202
12137
11967
11876
11760
11646
11517
11419
11575
11864
12271
12585
12748
12679
12372
12050
11797
11481
10826
10559
10290
10055
9816
9754
9866
10067
10784
11099
11295
11408
11509
11610
11938
12087
12201
12283
12325
12341
