11964
11966
12010
12007
11950
11928
11845
11842
11852
11900
11872
11946
12015
12007
12003
11998
11945
11931
11967
12018
12087
12053
12054
12087
12053
12037
12039
11975
11986
12038
12041
11980
11967
11893
11896
11936
11924
11918
12040
12078
12063
12046
11959
11950
12010
11970
11915
11944
12040
11954
11904
11954
11939
11926
11932
11924
11896
11885
11901
11920
11941
11913
11918
11891
11876
12005
11999
11929
11924
11886
11828
11840
11849
11914
11996
12085
12143
12160
12130
12103
12127
12073
12058
12023
12037
12043
12002
11992
11928
11913
11851
11816
11823
11887
11962
11951
11951
11952
12013
11998
11974
11970
12004
12084
12077
12093
12083
12044
12030
12000
11965
11968
11969
11954
11938
11877
11846
11841
11870
11890
12000
12066
12056
12069
12084
12005
12010
12012
12003
12016
12077
12084
12084
12031
11985
11990
11885
11956
11957
11921
11936
11913
11898
11812
11762
11779
11848
11856
11886
11953
12025
12045
12060
12071
12031
12007
12041
12131
12108
12147
12127
12103
12084
12030
12028
11998
11975
11932
11936
11963
11953
11847
11792
11768
11726
11780
11840
11815
11798
11857
11857
11934
11955
11930
12059
12099
12073
12038
12066
12067
12023
12022
12046
12041
12042
12025
11991
12027
11960
11906
11978
11912
11951
12038
12039
12001
11963
11969
11984
11968
11991
11996
12044
12083
12048
12022
11961
11974
11942
11935
11920
11949
12015
12014
12007
12014
11975
11953
12001
12003
11999
12059
12128
12077
12045
12006
12019
11992
11912
11895
11898
11932
11924
11911
11897
11822
11785
11803
11761
11898
11897
11842
11732
11650
11720
11805
11872
11990
12026
12057
12092
12075
12035
11987
11976
11992
12072
12139
12143
12164
12154
12171
12194
12235
12195
12143
12051
12000
11953
11892
11779
11748
11785
11863
11924
11962
11942
11945
11963
11951
11964
11996
11994
11953
11992
12001
11961
11916
11859
11871
11934
11985
11996
11981
11990
12016
12056
12009
11892
11878
11936
11917
11967
11996
12016
12013
11969
11964
12006
12010
12062
12187
12137
12057
12084
12009
12007
11979
11974
11980
11960
11905
11932
11957
11924
11834
11815
11758
11760
11793
11883
12014
11987
11925
11923
11965
12000
12056
12061
12087
12084
12086
12079
12024
12050
12053
12024
11984
11981
11955
11920
11911
11919
11879
11827
11778
11769
11835
11967
11995
11998
11961
11978
11984
11993
12024
12084
12110
12147
12171
12149
12140
12057
12050
12065
12065
12046
12077
12080
12033
11932
11926
11947
11959
11888
11874
11804
11806
11772
11795
11863
11773
11745
11718
11722
11709
11796
11871
11887
11964
11974
12049
12116
12091
12070
12087
12094
11939
11956
11954
11968
11930
12007
12076
12122
12115
12052
12098
12083
12104
12113
12211
12231
12182
12149
12071
11986
11900
11833
11795
11757
11739
11800
11851
11888
11821
11897
11911
11885
11864
11963
12013
12051
12033
12053
12097
12027
11973
11994
12000
12005
12030
12023
11958
11981
12006
12001
11995
12001
11943
11902
11858
11807
11833
11844
11906
11984
12027
12086
12122
12129
12069
12083
12045
12030
12039
12094
12148
12069
11975
11932
11907
11906
11883
11839
11860
11952
11902
11919
11846
11852
11917
11957
11981
12154
12168
12115
12098
12059
11997
11988
11965
11927
11894
11876
11906
11982
12107
12154
12199
12181
12184
12120
12055
12034
12000
11924
11805
11774
11632
11565
11650
11720
11731
11724
11800
11932
11982
12055
12131
12144
12213
12164
12127
12057
12049
12051
12016
12030
12054
12032
12011
11988
11769
11681
11649
11723
11825
11911
12045
12206
12319
12356
12108
12064
11930
11796
11747
11735
11753
11684
11652
11691
11681
11778
11875
11965
12023
12051
12041
12079
12072
12018
12017
12021
11998
12047
12150
12134
12074
12034
12025
12031
12034
12011
11992
12086
12110
12096
12111
12090
12040
12037
12041
11992
11983
11932
11884
11900
11859
11823
11854
11895
11909
11974
11997
12032
12022
12007
12007
11997
11956
11949
12068
12102
12146
12139
12183
12137
12161
12168
12143
12125
12107
12069
12111
12106
12072
12028
11928
11850
11765
11671
11544
11476
11483
11501
11548
11666
11748
11985
12094
12204
12338
12460
12640
12612
12638
12600
12576
12567
12566
12466
12325
12041
11898
11904
11711
11351
11005
10839
10870
10881
10901
10954
10934
10943
11226
11425
11638
11854
12001
12132
12206
12314
12324
12328
12327
12324
12329
12324
12239
12179
12150
12170
12146
12217
12263
12277
12225
12178
12177
12166
12141
12104
12133
12071
12018
11947
11963
11940
11995
12040
12025
11945
11961
11955
11944
11914
11830
11879
11909
11992
12010
12046
12052
12063
12010
11988
11982
11977
12053
12242
12329
12338
12386
12428
12381
12318
12309
12310
12292
12173
12118
12055
12036
11972
11892
11889
11801
11662
11599
11579
11272
11151
11070
11007
10971
11157
11307
11455
11528
11512
11539
11671
11801
11914
12001
12033
12206
12282
12315
12339
12356
12284
12282
12275
12206
12197
12281
12341
12356
12314
12277
12276
12149
12119
12146
12198
12235
12257
12285
12123
11955
11733
11613
11604
11797
11897
11965
11990
11946
11910
11845
11825
11820
11901
12195
12339
12453
12543
12609
12632
12625
12583
12593
12518
12436
12397
12316
12268
12244
12138
11814
11700
11485
11190
10884
10679
10326
10391
10521
10707
10836
11115
11296
11532
11715
11848
12132
12193
12298
12435
12464
12505
12629
12578
12574
12563
12527
12480
12419
12369
12360
12301
12241
12124
12066
11937
11897
11889
11957
11906
11864
11840
11789
11781
11811
11869
11905
12019
12112
12188
12219
12189
12118
12083
11970
11909
11846
11901
11925
11857
11750
11700
11749
11772
11823
12336
12646
12860
12983
13006
13025
12955
12919
12858
12723
12624
12533
12420
12236
12153
12126
11963
11783
11508
11151
10669
10197
9482
9216
9066
9114
9208
9454
9963
10502
11016
11411
11659
11842
12226
12371
12493
12615
12789
13102
13243
13311
13323
13310
13276
13137
12970
12840
12834
12782
12603
12519
12535
12519
12519
12455
12291
12069
11774
11554
11323
10950
10812
10773
10783
10958
11420
11536
11685
11792
11868
11950
12155
12274
12454
12618
12735
12902
12865
12821
12761
12643
12490
12387
12262
12227
12247
12280
12375
12327
12247
12093
11998
11761
11428
11107
10854
10678
10578
10666
10872
11078
11263
11377
11489
11581
11597
11604
11634
11730
11780
11853
11922
11994
11987
12025
12117
12156
12203
12280
12519
12563
12588
12683
12706
12769
12874
12925
12923
12900
12919
12937
12830
12701
12615
12557
12407
12172
12073
11974
11805
11725
11681
11659
11622
11544
11409
10787
10465
10265
10196
10286
10362
10348
10407
10572
10830
11156
11877
12235
12627
12990
13350
13562
13832
13841
13713
13654
13561
13323
13213
13096
12983
12871
12719
12614
12481
12337
12122
11785
10976
10620
10295
9987
9703
9552
9501
9568
9675
9807
9887
10080
10341
10850
11200
11508
11786
11992
12448
12569
12692
12791
12862
13038
13154
13205
13190
13135
13110
13016
12930
12823
12766
12821
12824
12881
12872
12785
12799
12760
12584
12532
12502
12431
12358
12206
12025
11873
11748
11615
11606
11668
11565
11338
11123
10961
10474
10223
10000
9887
9900
10034
10333
11254
11713
12137
12476
12802
13070
13484
13607
13648
13713
13818
13747
13744
13668
13507
13380
13075
12878
12586
12269
11826
11389
10488
10106
9760
9542
9443
9354
9421
9500
9635
9882
10037
10216
10337
10769
10967
11169
11379
11571
12052
12289
12444
12565
12788
13258
13477
13602
13645
13623
13558
13327
13211
13123
13080
13117
13175
13171
13197
13129
12994
12885
12540
12365
12102
11799
11575
11250
11200
11206
11235
11304
11422
11555
11599
11512
11347
11153
10937
10859
10822
10842
10915
11171
11339
11458
11679
11884
12051
12412
12567
12700
12813
12913
12943
12941
12947
12962
12951
13026
12940
12948
12910
12749
12532
11971
11690
11499
11343
11225
11162
11233
11226
11159
11144
11072
10839
10831
10835
10835
10937
11194
11409
11663
11858
11993
12115
12380
12640
12831
12988
13081
12865
12731
12556
12390
12319
12129
12111
12196
12279
12413
12521
12904
13141
13337
13356
13215
12687
12330
12155
12160
12188
12157
12034
12069
12079
12112
12198
12270
12168
11962
11589
11120
10620
9464
8960
8453
8178
8416
8959
9684
10371
11091
11886
12720
13665
13785
13797
13771
13634
13429
13051
12888
12772
12637
12449
12228
12224
12131
11987
11763
11461
10587
10133
9763
9439
9196
8995
9209
9654
10106
10572
11511
11892
12160
12572
13012
13339
13748
13915
14033
14110
14118
13956
13830
13702
13509
13365
13253
13095
13036
13040
13089
12997
12870
12666
12436
12247
12166
11950
11335
10942
10696
10520
10524
10768
10907
11176
11381
11553
11457
11362
11288
11168
11018
10773
10185
9971
9835
9849
9957
10141
10459
10885
11448
12440
12867
13162
13336
13406
13597
13773
13844
13817
13722
13685
13518
13344
13239
13065
12831
12386
12223
12119
11986
11886
11917
11953
11802
11672
11526
11325
10791
10758
10820
10785
10810
11000
11078
11105
11241
11430
11705
12305
12536
12684
12845
12971
13002
12926
12845
12752
12635
12399
11800
11564
11397
11326
11354
11805
12053
12196
12268
12319
12159
11968
11835
11622
11414
11302
11472
11593
11759
11841
11900
12069
12154
12306
12450
12594
12683
12624
12581
12448
12400
12388
12472
12525
12560
12574
12451
12416
12402
12451
12525
12578
12516
12319
12046
11704
11281
10848
10293
9989
9600
9320
9170
9204
9380
9634
9957
10354
10732
11147
11418
11799
12010
12307
12736
13104
13457
13516
13581
13708
13766
13763
13729
13601
13457
13279
13048
12553
12163
11774
11497
11364
11345
11254
11111
10857
10707
10533
10105
9977
9962
9947
10001
10245
10587
11026
12016
12476
12857
13215
13432
13460
13310
13283
13238
13125
13007
12827
12733
12625
12438
12204
11981
11597
11576
11616
11733
11852
12157
12111
11962
11850
11846
12057
12207
12194
12168
12185
12263
12549
12496
12418
12417
12362
12142
12124
12138
12165
12201
12223
12269
12266
12185
12167
12230
12174
12139
11985
11778
11514
11196
11223
11228
11245
11394
11592
12140
12325
12372
12424
12467
12296
12129
12069
12054
12055
12036
11787
11695
11673
11689
11679
11440
11269
11064
10898
10746
10551
10371
10434
10672
11048
11470
12132
12364
12677
12969
13169
13397
13456
13429
13324
13257
13173
12682
12461
12408
12282
12156
12325
12432
12430
12423
12419
12341
12295
12329
12360
12428
12524
12672
12677
12490
12287
12208
12098
11977
11823
11668
11413
11189
10796
10583
10449
10319
10078
9662
9736
9801
9847
9969
10015
9915
9724
9633
9719
9987
10538
11063
11386
11623
11946
12048
12089
12138
12219
12524
12753
12973
13282
13596
13862
14034
14068
14094
14075
14018
13673
13478
13218
12882
12580
12077
11818
11611
11588
11643
11735
11951
11983
11902
11810
11888
12119
12260
12322
12374
12459
12450
12195
12124
12076
12069
12078
12079
12028
12017
12118
12223
12345
12392
12317
12189
12079
11929
11632
11544
11479
11441
11470
11492
11443
11347
11269
11277
11277
11308
11422
11560
11699
11819
12092
12118
12125
12080
11871
11765
11987
12221
12387
12667
12853
12824
12702
12760
12862
12973
13119
13088
12976
12737
12394
12048
11232
10944
10771
10569
10452
10175
10101
10087
10123
10132
10121
10500
10787
11060
11377
11775
12489
12748
12955
13068
13130
13091
12768
12532
12366
12273
12285
12531
12585
12799
13025
13187
13892
14318
14542
14679
14806
14886
14706
14413
14002
13537
13180
12410
12034
11727
11413
11054
10674
9918
9458
8941
8335
7643
6964
6308
5617
5167
5003
5149
5548
6195
7159
8296
9639
11266
13040
14580
15559
16363
16490
16603
16698
16571
16054
15713
15399
15092
14810
14574
13989
13638
13248
12798
12220
10709
10004
9471
9070
8848
8829
8966
9118
9211
9427
9809
10344
10821
11140
11623
12191
12752
13213
13496
13838
13907
13769
13592
13426
13271
13240
13178
13112
13037
12895
12766
12820
12923
12955
13095
13224
12949
12512
11987
11620
11322
10529
10274
10225
10304
10404
10675
10875
11096
11247
11365
11591
11611
11561
11409
11189
10974
10610
10487
10368
10407
10696
11557
11975
12300
12564
12807
13027
13345
13401
13454
13364
13385
13574
13596
13673
13762
13822
13882
13621
13473
13383
13335
13316
13220
13111
12978
12836
12696
12373
12056
11718
11315
10913
10475
9542
9184
8945
8849
8799
8851
8866
8847
8917
9039
9187
9297
9580
10242
11093
11982
12806
14012
14315
14425
14485
14542
14442
13795
13240
12758
12393
12170
12332
12791
13124
13298
13526
13140
12336
11465
10726
10183
9722
9455
9538
9811
10272
10549
10912
11240
11335
11319
11345
11396
11309
11231
11114
10792
10742
10758
10855
11043
11247
11904
12433
12800
13036
13320
13982
14176
14188
14156
14107
14095
14119
14163
14176
14054
13793
13518
13365
13241
13076
12735
11979
11627
11211
10781
10334
10080
9682
9604
9501
9465
9566
9681
9734
9911
10214
10741
11348
11814
12196
13017
13438
13757
13833
13929
14287
14426
14466
14466
14361
13934
13702
13358
12954
12487
11958
11327
11217
11112
10917
10687
10353
10170
9914
9615
9276
8999
9044
9299
9623
9891
10027
10143
10485
11658
12080
12480
12685
12795
13109
13220
13397
13573
13553
13397
13371
13436
13361
13016
12486
11957
11846
11817
11793
11744
11694
12275
12623
12845
12896
12886
12718
12765
12426
12035
11767
11475
11351
11381
11510
11555
11586
11605
11656
11756
11913
12011
12126
12255
12262
12140
11938
11777
11171
10871
10627
10341
10168
10325
10494
10609
10618
10630
11141
11690
12136
12467
12558
12561
12984
13514
14046
14437
14758
14965
14759
14595
14410
14135
13744
13242
13180
13103
13046
12774
11533
10893
10227
9489
8928
8547
8250
8038
7930
8009
8261
8578
8900
9258
9793
10320
10796
11651
11980
12118
12162
12199
12490
12607
12728
12785
12860
13122
13319
13643
13950
14151
14239
14326
14317
14134
13840
13515
13178
13019
12912
12929
13159
13487
13952
13957
13887
13813
13767
13439
13214
12968
12660
12324
11424
10872
10443
10000
9511
9153
8895
8783
8693
8656
8696
8753
8805
8854
8913
9042
9131
9228
9524
10172
11602
12151
12619
12937
13225
14012
14361
14536
14657
14671
14181
13795
13469
13099
12569
11996
11029
10707
10463
10239
10226
10741
11077
11537
12179
12974
13500
13806
13880
13958
13998
13970
13970
13997
14062
14057
13909
13326
12759
12209
11830
11546
11150
10466
10079
9729
9488
9408
9336
9174
9005
9056
9354
9705
9885
10012
10282
11043
11323
11577
11745
11710
11543
11660
11631
11461
11284
11193
11827
12303
12763
13174
13509
13802
14582
14897
15263
15573
15450
14434
13907
13515
13010
12328
11762
10998
10936
11253
11754
12176
12486
12538
12467
12355
12189
11360
10712
10036
9523
9229
9192
9344
9698
10011
10299
11038
11420
11623
11669
11614
11432
10872
10804
10912
11096
11280
11877
12369
12951
13529
13960
14270
14619
14566
14504
14358
14258
13957
13735
13515
13288
13075
12999
12931
12761
12529
12396
12337
12303
12116
11902
11661
11353
10454
9839
9222
8757
8527
8588
8826
9211
9609
10168
10711
11055
11350
11920
12192
12460
12719
12811
13215
13371
13471
13446
13371
13236
12764
12486
12273
12024
11778
11170
10961
10786
10661
10571
10512
11017
11545
12286
12864
13222
13497
13553
13531
13369
13180
12997
12542
12277
12061
11870
11646
11393
11488
11766
11992
12119
12491
12490
12287
11962
11623
11474
11554
11628
11745
11820
11877
12037
12035
11962
11903
11849
11723
11556
11308
11005
10728
10545
10333
10321
10329
10348
10557
11578
12088
12589
12984
13293
13431
13699
13838
13962
14079
14137
13836
13634
13329
12934
12589
12216
11408
10990
10638
10364
10189
10032
10056
10183
10419
10629
10883
10878
10866
10927
11144
11424
11819
11997
12238
12668
13086
13541
13677
13769
13786
13797
13780
13561
13537
13518
13417
13161
12655
12391
12108
11820
11445
11097
10653
10528
10360
10260
10268
10417
10557
10737
10978
11318
12306
12808
13102
13217
13229
13188
13016
12922
12786
12693
12590
12613
12516
12251
11938
11590
11147
10474
10204
9784
9404
9286
9442
9785
10362
11081
11724
12661
13075
13568
14016
14393
14623
14610
14478
14284
14102
13389
12905
12647
12392
12103
11772
11349
11265
11038
10767
10453
9486
8996
8631
8418
8361
8513
8927
9576
10305
11096
11929
12632
13093
13640
13804
13814
13732
13613
13250
13220
13420
13558
13567
13378
12933
12694
12487
12368
12210
11994
11827
11738
11739
11711
11760
12170
12023
11844
11605
11278
10361
9898
9483
9438
9735
10190
10717
11226
11738
12613
12884
12902
12835
12569
12212
11641
11525
11790
12248
12662
13031
13072
13104
13054
12843
12630
12608
12467
12282
12152
12033
12098
12163
12194
12104
11982
11746
11588
11390
11335
11367
11457
11937
12319
12618
12822
12960
13051
12820
12446
12122
11914
11594
11620
11676
11720
11750
11885
12191
12150
12076
12001
11864
11539
11393
11304
11400
11581
11720
12054
12337
12360
12138
11847
11329
11217
11096
11068
11069
11023
11110
11313
11484
11594
11713
11906
12009
12096
12190
12193
12318
12439
12531
12583
12725
12967
13627
13797
13877
13920
13860
13534
13339
13112
12753
12341
11958
11227
10960
10685
10470
10278
9628
9478
9453
9497
9681
9935
10334
10807
11422
12127
12536
12527
12556
12669
12693
12555
12040
11789
11644
11570
11532
11703
11974
12054
12167
12280
12299
12418
12573
12651
12723
12791
12808
12733
12590
12338
12008
11729
11480
11507
11731
12063
12351
12516
12511
12555
12561
12468
12345
12281
12164
11974
11843
11817
11865
11996
12099
12233
12256
12163
11965
11804
11498
11213
11121
11027
11131
11265
11434
11588
11739
11979
12071
12237
12394
12452
12553
12582
12578
12557
12713
12873
12743
12396
12080
11840
11603
11283
11205
11154
11134
11248
11533
11609
11552
11556
11639
11764
12114
12257
12317
12336
12383
12386
12351
12374
12458
12568
12740
12713
12642
12556
12422
12270
11975
11814
11672
11365
11076
10873
10978
11095
11200
11265
11260
11307
11400
11520
11616
11592
11516
11516
11420
11337
11456
11861
11955
12057
12142
12233
12320
12323
12342
12622
12959
13132
13322
13289
13152
13101
13105
13192
13072
12947
12827
12674
12424
11791
11587
11517
11508
11468
11497
11018
10693
10308
9857
9475
9168
9149
9455
10038
10736
11790
12192
12473
12653
12822
13196
13284
13391
13419
13384
13325
13223
13070
13016
12918
12811
12494
12370
12180
12086
12114
12300
12396
12532
12543
12445
12332
12038
11843
11533
11254
10983
10601
10695
10821
10938
11173
11508
11485
11316
11147
11065
11026
11122
11118
11096
11049
11085
11294
11488
11693
11909
12007
12046
12373
12564
12764
13032
13388
13694
13745
13759
13665
13533
13337
13042
12961
12781
12549
12332
11895
11719
11666
11526
11400
11164
10968
10706
10447
10220
10031
10180
10452
10863
11282
11652
12255
12575
12792
12891
12906
12877
12691
12593
12654
12749
12906
12849
12736
12711
12633
12537
12275
12157
12074
11929
11786
11631
11449
11381
11338
11359
11431
11568
11539
11467
11356
11286
11298
11483
11662
11789
11877
12073
12114
11991
11820
11647
11480
11537
11546
11609
11734
11811
11889
11876
11853
11888
11972
12122
12381
12533
12689
12803
12849
12858
12959
12910
12704
12464
12293
12059
11971
11971
12075
12180
12212
11766
11357
10987
10754
10678
10967
11199
11396
11571
11727
12236
12449
12596
12715
12775
12751
12441
12186
11977
11814
11680
11697
11735
11714
11640
11645
11700
11847
11962
12126
12180
12221
12343
12501
12636
12764
12858
12742
12654
12673
12659
12582
12410
11995
11851
11701
11613
11516
11247
11081
10967
10993
11098
11213
11637
11866
11959
11995
12042
12189
12281
12298
12139
11896
11740
11886
12039
12151
12166
12085
11835
11588
11317
11048
10764
10429
10539
10693
11010
11439
11936
12691
12868
12903
12846
12806
12831
12780
12783
12775
12747
12672
12380
12185
12032
11929
11842
11850
11954
12071
12096
12011
11843
11818
11836
11855
11894
11977
12021
12074
12091
12103
12124
12032
11981
11967
11897
11844
11869
11967
11911
11832
11724
11720
11952
12121
12219
12203
12223
12176
12208
12248
12208
12179
12208
12221
12275
12289
12191
12102
11968
11799
11569
11470
11446
11468
11578
11603
11664
11751
11873
11863
11961
12047
12091
12121
12183
12140
12161
12169
12135
12179
12480
12520
12541
12475
12364
11999
11818
11619
11465
11372
11243
11294
11391
11313
11108
11053
10964
10934
11016
11269
11543
11868
12244
12430
12609
12740
12848
12894
12840
12827
12828
12841
12974
12856
12672
12332
11944
11422
9966
9561
9384
9434
9610
9927
10393
10916
11453
11986
12369
12901
12942
13007
13061
13022
12985
12956
12913
12846
12769
12710
12538
12516
12499
12441
12438
12356
12339
12215
12136
12098
12049
11989
11952
11962
11965
11968
11913
11889
11807
11797
11797
11920
11919
11947
11993
12027
12016
11991
11997
11946
11893
11872
12108
12088
12102
12063
11973
11833
11737
11730
11709
11693
11735
11735
11739
11734
11804
11799
11828
11897
12014
12072
12169
12268
12113
12094
12159
12175
12179
12188
12131
12055
11952
11970
12007
11715
11584
11440
11288
11140
10907
10903
11036
11229
11510
12075
12239
12365
12492
12596
12630
12435
12330
12322
12364
12369
12267
12208
12178
12038
11852
11647
11311
11220
11086
11015
11086
11476
11768
12065
12103
12150
12274
12433
12413
12440
12495
12559
12648
12650
12661
12695
12658
12531
12490
12398
12345
12303
12228
12008
11934
11849
11704
11572
11265
11134
11039
10985
11023
11188
11385
11588
11775
12000
12202
12277
12198
12190
12263
12391
12455
12529
12546
12467
12429
12403
12314
12153
12051
11955
11830
11641
11515
11395
11277
11086
11101
11443
11639
11818
12036
12199
12197
12124
12172
12227
12307
12634
12772
12788
12795
12817
12798
12548
12358
12174
11946
11711
11344
11141
10927
10767
10648
10498
10528
10729
10959
11266
11680
12485
12655
12694
12713
12723
12679
12601
12681
12716
12675
12576
12395
12163
11900
11631
11167
10562
10706
11060
11443
11700
11767
12066
12114
12161
12212
12269
12274
12358
12364
12330
12328
12325
12299
12283
12278
12249
12221
12196
12179
12243
12295
12310
12272
12254
12215
12075
11945
11806
11569
11531
11576
11607
11663
11699
11678
11637
11541
11469
11519
11798
11877
11901
11913
11938
12028
12067
12130
12175
12212
12237
12219
12190
12154
12191
12294
12272
12253
12222
12163
12098
12053
12027
11995
11932
11940
11977
11968
11913
11915
11839
11783
11590
11465
11394
11376
11398
11461
11613
11690
11780
11867
11989
11937
11976
11955
11980
12057
12332
12402
12435
12431
12439
12429
12276
12223
12262
12250
12207
12109
11999
11940
11895
11865
11812
11781
11867
11886
11901
11961
11829
11661
11521
11530
11624
11848
11900
11938
11991
12026
12081
12135
12139
12140
12149
12057
11892
11889
11854
11803
11639
11603
11803
11956
12159
12314
12366
12158
11995
12044
12054
12160
12240
12283
12187
12126
12043
11996
11985
11941
11785
11635
11587
11510
11313
11136
11095
11245
11484
11889
12022
12125
12192
12236
12206
12107
12101
12150
12209
12224
12321
12311
12258
12208
12185
12226
12159
12173
12148
12144
12114
12106
12069
11966
11817
11641
11423
11427
11521
11671
11819
11836
11772
11786
11852
11869
11929
12072
12153
12187
12211
12196
12006
12016
12066
12084
12109
12235
12381
12347
12328
12310
12278
12249
12312
12335
12312
12217
12030
12006
11962
11966
11760
11422
10766
10770
10824
10871
10959
11344
11577
11796
12025
12174
12293
12391
12414
12414
12360
12387
12462
12457
12415
12361
12302
12224
12257
12290
12268
12255
12232
12319
12218
12008
11660
11318
10963
11042
11213
11372
11450
11515
11704
11830
12008
12179
12238
12200
12215
12221
12208
12215
12219
12207
12174
12059
12037
11995
11966
12015
12063
12100
12100
12027
12042
12040
11980
11970
11963
12100
12067
12042
12061
12027
11986
11991
11942
11925
11955
11986
11971
11945
11896
11845
11839
11889
11857
11930
11973
12001
12006
11942
11932
11945
11933
11951
12013
12046
12051
12029
11991
11902
11968
12028
12027
11986
12013
12097
12072
12062
12001
11947
11868
11846
11909
12017
12115
12245
12156
12004
11828
11706
11684
11708
11720
11760
11761
11733
11804
11872
11878
11853
11823
11907
12055
12112
12191
12161
12145
12114
12124
12091
12054
12031
12064
12045
12004
11978
11879
11754
11701
11750
11762
11803
11843
12035
12065
12179
12264
12201
12140
11966
11917
11910
11871
11828
11891
11929
11967
12052
12123
12126
12185
12109
12062
12077
12145
12213
12261
12263
12258
12221
12108
12020
11930
11772
11645
11587
11706
11805
11793
11736
11671
11737
11812
11909
12021
12142
12194
12210
12218
12164
12134
12111
12032
11968
12002
11956
11869
11804
11546
11499
11607
11760
11857
11991
11964
11927
11877
11873
11922
11923
11910
11922
11945
12001
12135
12160
12155
12182
12274
12340
12242
12295
12380
12379
12345
12338
12296
12286
12343
12325
12375
12438
12426
12260
11946
11047
10764
10575
10419
10364
10473
10863
11241
11517
11775
12012
12349
12377
12395
12470
12486
12485
12431
12414
12360
12294
12291
12197
12140
12140
12152
12164
12112
12026
12009
11993
11925
11993
12045
12012
12030
11976
11902
11910
11967
11957
11996
11982
11975
11999
12001
11981
11985
12015
12023
12021
11989
11991
12030
12033
11890
11897
11895
11925
11950
11939
11975
11994
11976
11998
12074
12075
12063
12160
12243
12222
12114
12079
11990
11937
11933
11904
11867
11884
11953
11953
11929
11731
11645
11506
11360
11269
11431
11493
11580
11695
11791
11986
12081
12144
12191
12276
12258
12186
12211
12258
12316
12295
12294
12212
12079
11941
11754
11634
11708
11834
11919
11937
11963
12071
12139
12141
12143
12118
12066
11897
11860
11849
11885
11949
12051
12076
12073
12007
12009
11965
11942
11961
11973
11977
11968
12027
11964
11945
11894
11876
12025
12132
12230
12265
12274
12179
12011
11938
11873
11805
11847
11861
11812
11779
11787
11808
11908
11874
11802
11761
11757
11760
11809
11769
11836
11947
12061
12155
12218
12272
12326
12407
12385
12418
12412
12351
12194
11961
11393
11368
11494
11625
11713
11693
11687
11813
11973
12060
12077
11882
11731
11695
11843
11885
11843
11826
11899
11969
12051
12150
12084
12085
12130
12163
12170
12245
12334
12422
12440
12418
12446
12449
12401
12340
12294
12194
11727
11485
11172
10842
10700
10800
10934
11093
11298
11538
11756
12074
12184
12234
12266
12301
12416
12386
12416
12427
12389
12330
12313
12403
12517
12573
12630
12519
12506
12479
12400
12324
12165
12143
12158
12094
11993
11945
11678
11563
11461
11325
11083
10625
10450
10301
10340
10702
11203
12078
12431
12650
12724
12753
12811
12833
12803
12704
12617
12556
12409
12231
11975
11643
11308
10743
10672
10813
11035
11210
11535
11754
11917
11991
12084
12127
12258
12302
12344
12354
12346
12316
12329
12329
12231
12186
12201
12143
12132
12184
12201
12196
12131
12054
11977
11992
12080
12162
12175
12175
12170
12154
12148
12070
12040
12020
12000
11949
11885
11871
11933
11975
11930
11949
11835
11719
11772
11928
12108
12260
12190
12139
12131
12109
12091
11975
12026
12169
12362
12425
12131
11884
11622
11369
11149
11132
11227
11294
11350
11401
11391
11430
11496
11624
11721
11821
12043
12145
12215
12310
12454
12562
12935
13077
13130
13264
13314
13441
13359
13175
13023
12755
12080
11834
11676
11665
11711
11717
11486
11096
10685
10218
9743
9379
9174
9280
9569
9863
10130
10527
10759
11175
11697
12159
12680
12844
12957
13033
13100
13164
13089
13017
12995
12983
12973
12724
12670
12643
12579
12536
12759
12855
12844
12808
12782
12807
12588
12430
12247
12112
11907
11438
11179
11043
10979
11018
11018
10895
10890
10981
11146
11332
11441
11350
11324
11346
11446
11657
11793
11995
12212
12381
12512
12614
12702
12771
12880
13006
13069
13019
12938
12856
12746
12657
12490
12415
12376
12327
12277
11903
11599
11338
11062
10847
10590
10273
10219
10246
10347
10489
10969
11263
11624
11924
12187
12530
12580
12602
12583
12563
12530
12463
12477
12468
12442
12408
12335
12230
12181
12165
12159
12209
12340
12384
12395
12389
12360
12374
12369
12407
12459
12606
12692
12594
12440
12223
11994
11731
11110
10921
10911
11076
11276
11621
11745
11792
11838
11835
11971
12163
12073
11939
11809
11668
11268
11191
11192
11298
11420
11638
12077
12283
12592
12836
12930
12865
12833
12816
12716
12566
12117
11944
11818
11860
11954
11985
11848
11870
11872
11896
11831
11569
11435
11307
11270
11303
11497
11819
11919
11953
11923
11892
11967
12045
12100
12138
12151
12219
12182
12108
12015
11982
11948
11738
11791
11865
11999
12114
12042
12035
12132
12128
12024
11948
11915
11960
12012
12052
12065
12172
12295
12314
12227
12140
11865
11741
11429
11018
10779
10672
10670
10849
11097
11413
11775
12644
13147
13634
13991
14196
14278
14137
13923
13681
13457
13268
12848
12658
12508
12312
12125
11786
10706
10033
9331
8829
8571
8343
8104
8015
8205
8591
9002
9460
9923
10402
10991
12254
12680
13051
13338
13450
13499
13542
13492
13462
13455
13391
13184
13101
13061
13017
12958
12839
12774
12703
12650
12646
12625
12553
12533
12438
12276
12251
12412
12436
12400
12444
12396
12189
11562
11345
11195
11106
11100
11344
11418
11545
11687
11802
11882
11900
12012
12092
12142
12179
12340
12373
12414
12390
12361
12215
12177
12168
12136
12150
12198
12150
12060
11928
11754
11566
11297
11301
11301
11278
11243
11631
11828
11999
12089
12214
12276
12319
12275
12235
12183
12185
12236
12203
12168
12096
12070
11862
11259
10847
10487
10236
10117
10191
10355
10683
11133
11479
11799
12835
13457
13939
14245
14483
14751
14694
14503
14282
13942
13238
12862
12513
12255
12111
12042
11791
11494
11178
10743
10246
8913
8180
7542
7073
6843
6819
7043
7540
8188
9055
10010
10807
11497
12301
13009
13886
14066
14197
14264
14260
14205
14126
14164
14134
14075
14007
13678
13500
13238
13062
12977
12747
12611
12460
12397
12331
12142
12147
12158
12129
11993
11906
11970
12075
12067
11973
11908
11710
11708
11795
11792
11831
11824
11977
12014
12092
12181
12199
11939
11808
11691
11598
11676
11852
11914
11933
11972
12079
12232
12378
12337
12243
12119
12051
11951
11847
11790
11676
11417
11084
10789
10814
10885
10881
10911
10691
10618
10693
10780
10868
11080
11725
12013
12236
12454
12614
12865
12952
13060
13103
13104
13072
12983
12827
12706
12565
12329
11836
11687
11518
11408
11486
11838
12005
12107
12175
12262
12278
12187
12133
12012
11882
11847
12125
12181
12168
12152
12117
11893
11742
11644
11588
11646
11704
12017
12316
12845
13232
13493
13951
13825
13590
13325
13040
12780
12222
12107
11947
11626
11026
9774
9110
8471
7858
7401
7276
7551
8142
8819
9389
9919
10515
11080
11643
12117
12414
12713
12743
12769
12819
12848
13118
13415
13643
13794
13779
13818
13859
13820
13837
13769
13682
13508
13415
13289
13173
13020
12679
12651
12647
12599
12536
12406
11836
11430
11027
10689
10514
10752
11035
11332
11602
11704
11847
11846
11850
11923
12047
12135
12083
11950
11859
11838
11776
11789
11917
11960
11946
11946
11938
11975
11950
11925
11894
11827
11783
11900
12026
12200
12408
12526
12778
12886
12953
12812
12611
12211
11849
11425
11151
11039
11251
11312
11328
11257
11062
10875
10384
10145
9945
9793
9794
9983
10312
10707
11059
11630
11799
12118
12452
12805
13459
13649
13722
13712
13539
13230
12734
12721
12755
12772
12872
12954
12903
12758
12560
12288
12002
11397
11200
11126
11120
11216
11477
11576
11802
12076
12195
12291
12436
12586
12726
12848
12894
13006
13089
13265
13447
13652
14179
14214
14180
14039
13804
13455
12433
11880
11355
10843
10273
9367
9101
8782
8579
8453
8451
8407
8299
8353
8531
8653
8744
8882
9236
9751
10304
10981
11749
12514
13779
14157
14389
14468
14445
14448
14234
14111
13998
13936
13844
13649
13515
13286
13028
12741
12240
12154
12102
12009
11840
11538
10827
10402
10132
10094
10280
10806
11130
11507
11907
12220
12388
12557
12609
12625
12640
12766
13203
13297
13204
13150
13037
12921
12739
12630
12411
12191
12006
11685
11536
11456
11376
11295
11150
11115
11026
10894
10729
10633
10791
10947
11254
11677
12065
12674
12796
12727
12581
12444
12370
12454
12460
12269
11947
11666
11331
11272
11297
11409
11611
11872
11981
12162
12342
12557
12830
13326
13181
12912
12682
12524
12355
12250
12178
12074
12092
12123
11989
11910
11845
11760
11670
11421
11294
11088
10849
10683
10434
10399
10403
10460
10524
10633
11213
11670
12077
12346
12545
12704
12630
12497
12314
12226
12355
12840
13077
13320
13454
13561
13650
13455
13255
13102
12941
12756
12481
12361
12245
12137
12122
12035
12031
12009
11866
11493
10136
9445
8916
8686
8717
9151
9718
10238
10739
11278
11605
12117
12360
12486
12511
12565
12605
12642
12628
12651
12806
12951
13158
13258
13405
13489
13608
13872
14470
14692
14738
14463
13973
13080
12573
12137
11705
11269
10614
10325
10214
10222
10327
10392
10371
10353
10209
9881
9471
9112
8740
8346
8094
8153
8584
9398
10413
11894
12308
12687
13033
13307
13595
13848
13751
13822
13815
13795
13841
13736
13604
13424
13259
13046
12378
12140
12023
11994
12006
12219
12414
12565
12670
12706
12500
12318
12204
12139
12024
11976
11753
11597
11560
11654
11695
11456
11309
11176
11140
11160
11182
11117
11160
11145
11297
11411
11721
11825
11976
12176
12444
12639
12733
12664
12607
12530
12384
12357
12376
12388
12340
12231
12114
12068
12137
12291
12425
12430
11957
11717
11383
11121
10932
10527
10503
10581
10803
11162
11596
12206
12451
12661
12890
13034
13293
13327
13378
13362
13508
13688
13541
13226
12905
12587
12114
10950
10539
10234
10048
9904
9914
10120
10672
10903
11202
11526
11672
11729
11680
11699
11680
11567
11494
11278
11153
11288
11501
11592
11812
12007
12222
12468
12734
12976
13506
13678
13727
13769
13750
13548
13354
13193
13044
12815
12605
12294
12147
11953
11640
11418
10942
10629
10281
10084
9968
9803
9728
9840
10145
11167
11580
11965
12349
12573
13073
13401
13523
13401
13216
13104
13012
13014
12970
12881
12714
12261
12218
12239
12146
11961
11694
11374
11310
11222
11125
11022
11124
11231
11286
11441
11731
11912
11933
11996
12068
12098
12216
12155
12161
12206
12111
11923
11630
11347
11226
11234
11286
11478
11926
12003
12092
11998
11761
11513
11636
11699
11612
11589
11501
11449
11379
11415
11585
11899
12648
12895
13109
13359
13530
13458
12837
12571
12428
12364
12316
12053
11988
11848
11759
11617
11307
11273
11258
11337
11486
11590
11527
11549
11707
11883
12016
12255
12367
12468
12597
12753
12875
12897
12770
12704
12581
12445
12483
12573
12719
12815
12938
12826
12688
12519
12269
11972
11701
11150
11005
10916
10899
10935
11154
11407
11692
11990
12196
12501
12592
12266
11876
11627
11428
11337
11604
11901
11991
12048
12412
12495
12564
12615
12528
12144
11029
10484
10001
9765
9775
9970
10325
10656
11219
11649
12197
12723
13243
13855
13812
13599
13136
12549
12033
11575
11521
11421
11230
10976
10808
10747
10713
10798
10979
11069
11262
11492
11802
12075
12264
12277
12382
12573
12659
12564
12454
12399
12460
12429
12308
12088
12327
12386
12510
12613
12663
13044
13366
13548
13511
13409
13167
12623
12464
12250
12064
11855
11280
10892
10517
10163
9770
9415
9270
9233
9496
9956
10506
11403
11762
12036
12350
12744
13149
13935
14320
14547
14584
14574
14264
14064
13889
13631
13397
12844
12639
12532
12661
13122
13484
13283
12957
12718
12415
12052
11088
10592
10209
10078
10126
10356
10960
11169
11361
11459
11464
11047
10554
10119
9681
9184
8702
8263
7961
7800
7983
8571
9525
10619
11665
13615
14133
14443
14526
14505
14840
15029
15102
15183
15316
15525
15467
15086
14573
14014
13369
11565
10701
9858
9096
8516
8077
7756
7562
7533
7620
7775
8035
8344
8507
8550
8730
9080
9573
10167
10883
12334
12974
13491
13912
14245
14374
14172
13964
13850
13791
13751
13799
13742
13702
13782
13876
13930
13870
13720
13519
13314
13239
13309
13303
13118
12956
12912
12593
12354
12116
11820
11500
10967
10858
10768
10790
10829
10787
10874
11035
11254
11556
11864
12431
12599
12735
12831
12790
12659
12103
11838
11665
11519
11490
11967
12215
12434
12625
12671
12536
11940
11677
11377
11138
10966
10998
11104
11179
11254
11223
10836
10573
10274
9908
9688
9883
10497
11343
12223
13420
13871
14534
15053
15240
15094
14946
14735
14391
13934
12654
12109
11458
10827
10168
9449
8638
7821
7179
6604
6699
6972
7501
8268
9095
10100
11046
11733
12297
12689
13481
13983
14481
14983
15311
15392
15163
15018
14863
14561
14131
13258
12849
12412
12009
11569
11117
10746
10738
10816
10941
11149
11728
12079
12388
12758
13001
13050
13086
13146
13198
13270
13239
12898
12669
12471
12367
12358
12252
12048
12007
12076
12110
11980
11289
10930
10599
10283
10021
9590
9534
9517
9579
9754
10008
10453
10939
11334
11678
12107
12195
12294
12500
12717
12871
12743
12676
12691
12759
12823
12933
12919
12969
13070
13045
12885
12883
12874
12752
12615
12416
12235
12124
11860
11575
11288
11278
11584
12012
12342
12522
12660
12731
12701
12604
12447
12209
11780
11398
10961
10484
10113
9785
9872
10003
10227
10508
10829
11498
12476
14155
14722
15008
14951
14688
13843
13310
12867
12555
12251
11947
11984
11910
11737
11370
10844
9581
9150
8822
8564
8397
8323
8286
8320
8471
8771
9213
9895
10764
11678
12385
13040
13931
14294
14680
14982
15126
15174
15110
14938
14906
14710
14326
13410
12922
12452
11971
11555
11285
11194
11381
11595
11744
11758
11470
11283
11123
11128
11345
11541
11614
11793
12033
12307
12457
12634
12622
12614
12453
12242
11802
11366
10747
9989
9197
8594
8240
8219
8727
9520
10402
11205
12123
12472
12786
13109
13279
13550
13651
13787
13817
13720
13607
13369
13264
13104
12954
12693
12169
11862
11559
11307
11175
11140
11165
11436
11783
12108
12454
13046
13389
13820
13985
13924
13679
12932
12529
12186
11847
11496
10936
10580
10213
9974
9802
9559
9405
9423
9607
9919
10293
10726
11375
11522
11617
11784
12091
13128
13515
13741
13813
13837
13769
13593
13308
12946
12635
12419
12304
12224
12133
12034
12037
11776
11539
11262
10951
10562
10220
9576
9384
9568
10131
10898
11686
12427
13057
13560
13551
13578
13599
13611
13299
12930
12492
12137
11914
11636
11333
11408
11489
11682
11869
12216
12329
12378
12252
12097
11993
11798
11861
11894
11885
11933
12192
12238
12301
12390
12395
11935
11572
11318
11252
11443
11686
11868
11871
12097
12380
12547
12535
12472
12335
12175
12031
11794
10909
10598
10508
10603
10762
11016
11235
11539
11851
12202
12507
12775
12822
12690
12419
12093
12136
12265
12376
12403
12456
12772
12681
12569
12399
12224
12055
11660
11399
11156
11006
11046
11271
11279
11291
11431
11700
12091
12396
12340
12227
11974
11655
11298
11390
11577
11870
12146
12532
12612
12627
12683
12772
12799
12497
12320
12204
12044
11920
11716
11643
11583
11572
11462
11517
12068
12619
13167
13474
13511
13221
13176
13059
12950
12838
12634
12469
12312
12091
11721
11445
10860
10514
10224
10070
10039
10010
9937
10015
10117
10321
10714
11279
12282
12606
12828
12824
12789
12835
12729
12638
12543
12389
12177
11659
11456
11393
11446
11640
12108
12188
12252
12292
12327
12308
12302
12405
12370
12193
12108
12035
12003
11914
11881
11891
11766
11695
11706
11883
12057
12165
12362
12322
12270
12245
12278
12373
12565
12693
12679
12591
12494
12357
12336
12355
12406
12385
12401
12324
12200
11907
11500
10898
10679
10565
10644
10930
11156
11316
11410
11492
11496
11452
11249
11219
11322
11508
11681
11938
11974
12115
12208
12199
12195
12504
12663
12755
12816
12826
12913
12985
12995
12992
13012
12934
12844
12880
12883
12846
12827
12709
12563
12382
12094
11681
11290
10657
10443
10374
10406
10590
11280
11620
11782
11697
11556
10836
10495
10354
10489
10797
11244
12096
12248
12308
12360
12285
11989
11800
11690
11778
12018
12343
12739
12806
12838
12812
12705
12407
12304
12236
12110
11980
11935
11965
11958
11932
11906
11943
12034
12155
12286
12324
12206
11857
11628
11576
11655
11851
12058
12445
12425
12315
12289
12352
12395
12351
12344
12378
12304
12128
11793
11563
11374
11370
11470
11680
11582
11518
11504
11441
11415
11475
11571
11574
11623
11771
11880
11802
11727
11786
11907
12185
12442
12615
12671
12611
12559
12296
12195
12097
11938
11743
11796
11829
11838
11887
11940
12095
12159
12209
12231
12301
12341
12354
12347
12261
12251
12290
12329
12408
12381
12311
12253
12156
11852
11764
11640
11518
11365
11325
11425
11573
11647
11636
11696
11756
11897
12022
12121
12152
12063
11975
11749
11397
11281
11583
11800
11958
12124
12224
12266
12477
12587
12628
12548
12445
12319
12253
12013
11719
11444
11261
11276
11398
11541
11813
12070
12478
12677
12793
12710
12546
12234
12242
12243
12315
12354
12344
12153
12115
12111
11953
11646
11307
11186
10970
10718
10583
10555
10845
11072
11236
11317
11409
11861
12019
12112
12236
12356
12468
12442
12394
12421
12441
12302
12182
12176
12195
12151
12068
11957
12072
12162
12272
12323
12258
12158
12096
12057
12022
11957
12033
12111
12208
12194
12135
12072
11922
11925
12041
12281
12501
12465
12338
12250
12235
12237
12225
12135
12001
11871
11824
11881
12186
12448
12678
12800
12887
12959
12876
12614
12339
12067
11860
11599
11600
11596
11570
11456
10901
10604
10243
9929
9655
9408
9292
9256
9430
9690
10059
10575
11834
12301
12780
13160
13463
13846
13848
13740
13557
13383
13159
12721
12336
11952
11573
11221
10879
10951
11047
11184
11422
11701
12174
12344
12483
12556
12597
12720
12744
12746
12749
12735
12591
12506
12475
12470
12459
12395
12263
12179
12173
12180
12227
12130
12003
11867
11734
11612
11549
11521
11430
11490
11532
11606
11850
11867
11841
11852
11875
11920
11942
12000
12048
12094
12181
12294
12437
12519
12540
12448
12446
12447
12368
12278
12192
12098
11921
11842
11820
11776
11728
11604
11522
11358
11050
10744
10327
10342
10602
11008
11438
11818
12225
12308
12304
12249
12217
12358
12331
12363
12425
12474
12489
12772
12957
12957
12849
12708
12362
12129
11831
11603
11463
11309
11190
11253
11297
11272
11240
11382
11463
11479
11559
11656
11924
12028
12101
12109
12037
12010
12131
12263
12392
12489
12570
12458
12442
12442
12417
12387
12358
12302
12347
12408
12398
12357
12217
12116
12029
11908
11868
11885
11863
11835
11810
11756
11657
11550
11478
11440
11431
11487
11615
11756
11939
12065
12170
12217
12270
12218
12134
12085
12063
12037
11923
11956
12089
12223
12330
12409
12463
12428
12338
12259
12282
12320
12358
12341
12313
12248
12210
12149
12034
11787
11404
11202
11114
11122
11247
11280
11277
11393
11620
11936
12141
12194
11707
11277
10821
10453
10197
10064
10362
10778
11256
11760
12567
12796
12950
13077
13168
13162
13105
13124
13118
13075
12983
12874
12763
12530
12321
12114
11972
11755
11702
11594
11507
11447
11487
11678
11820
11948
11990
12079
12110
12206
12247
12233
12215
12150
12168
12141
12111
12125
12008
11978
11889
11865
11860
11861
11719
11700
11733
11765
11715
11642
11681
11771
11848
11916
11996
12218
12247
12228
12247
12196
12142
12159
12163
12095
12031
12020
11973
11914
11739
11716
11703
11814
11867
11829
11757
11697
11670
11714
11798
11899
12030
12094
12190
12221
12267
12264
12220
12070
12048
12069
12103
12118
12152
12180
12194
12176
12102
12147
12194
12216
12239
12203
12142
12136
12155
12137
12058
11944
11744
11363
11261
11298
11364
11416
11373
11381
11434
11547
11676
11789
11733
11613
11573
11597
11840
12347
12459
12591
12548
12437
12366
12197
11992
11846
11818
11817
11898
12004
12067
12057
12078
11997
11927
11928
11979
11955
11964
11862
11837
11825
11710
11656
11964
12040
12090
12162
12197
12229
12225
12236
12192
12140
12195
12158
12108
12014
11968
11876
11745
11763
11741
11769
11844
11961
12087
12097
12110
12116
11997
11895
11893
11842
11852
11885
11963
12029
11986
11985
12037
12015
12027
12136
12103
12075
12095
12142
12081
12061
12078
12037
11991
12077
12102
12108
12074
12021
11979
11956
11946
11962
12009
11995
11981
11921
11923
11942
11921
11783
11686
11673
11654
11748
11757
11666
11581
11517
11538
11598
11878
11982
12075
12065
12006
11895
11961
11999
12077
12245
12369
12335
12279
12157
12085
12024
11751
11582
11629
11783
11959
12158
12208
12170
12155
12118
12035
11879
11846
11857
11856
11832
11629
11715
11817
11858
11888
11944
12135
12257
12247
12185
12130
12101
12097
12103
12158
12138
12152
12136
12158
12107
12065
11999
11876
11858
11910
11916
11927
11851
11908
11947
11950
11988
12059
12162
12130
12109
12008
11909
11912
11946
11941
11934
11873
11862
11957
11980
12015
12023
12060
12086
12075
12018
11969
11901
11900
11875
11919
11930
11913
11872
11940
12036
12121
12114
12107
12034
12027
12076
12136
12177
12158
12027
11900
11690
11524
11459
11444
11503
11562
11588
11531
11472
11658
11804
11919
12039
12153
12428
12561
12661
12689
12615
12535
12479
12431
12323
12243
12119
11805
11587
11298
10891
10539
10662
10999
11295
11555
11790
11980
12076
12098
12178
12212
12244
12388
12429
12409
12407
12377
12278
12205
12221
12242
12223
12225
12250
12233
12174
12101
12060
12098
12033
12022
12025
12063
12024
11951
11891
11877
11828
11826
11926
11985
11998
11992
11987
11956
11980
12008
12001
11966
12018
12040
11962
11930
11939
11963
11950
11971
11941
11894
11849
11795
11779
11724
11812
11904
11962
12138
12195
12245
12219
12205
12177
12074
12068
12095
12067
12036
11995
11959
11882
11755
11678
11666
11645
11551
11465
11456
11479
11617
11674
11783
11880
11908
11919
11935
11948
11982
12058
12146
12086
12138
12160
12126
12093
12142
12156
12144
12096
12086
12076
12089
12113
12107
12087
12063
12026
12035
11948
11932
11943
12004
12010
12078
12116
12107
12131
12053
12059
12094
12102
12033
11984
11994
11980
11988
11986
11962
11919
11905
11896
11901
11873
11863
11867
11841
11812
11826
11863
11839
11830
11793
11744
11718
11757
11805
11902
12021
12059
12142
12176
12150
12143
12154
12143
12019
12040
12014
12021
12032
12029
12004
11965
11860
11824
11720
11802
11893
11985
12087
12111
12092
12011
12046
12139
12160
12124
12126
12013
11895
11827
11790
11714
11822
11886
11919
11943
11976
11973
11947
11897
11862
11889
11953
12028
12147
12164
12111
12051
12028
11992
11972
12047
12019
12056
12091
12134
12118
12055
12066
12045
12016
12002
11986
11926
11904
11939
11960
11836
11745
11803
11802
11833
11861
11887
11887
11875
11919
12010
12017
12025
12093
12125
12061
12087
12059
11985
11900
11954
11998
11972
11985
12024
12021
11918
11838
11749
11781
11864
11939
11999
12019
12063
12085
12060
12076
12109
12052
12077
12176
12214
12205
12177
12021
12012
12011
11978
11928
11880
11900
11890
11828
11818
11757
11695
11614
11642
11692
11772
11890
11911
11875
11836
11823
11897
12039
12041
12084
12104
12088
12069
12004
11934
11864
11862
11986
12017
12001
12074
12108
12090
12041
12087
12079
12100
12188
12243
12234
12213
12184
12093
12053
12054
12024
12076
12116
12156
12125
12046
11985
11982
11927
11732
11646
11592
11607
11723
11823
11838
11843
11828
11764
11715
11742
11645
11509
11390
11417
11518
11826
12019
12251
12381
12377
12434
12446
12429
12345
12329
12270
12044
11825
11632
11533
11560
11769
11926
11914
11921
11941
12073
12036
12017
12040
12018
12044
12166
12201
12272
12283
12282
12230
12167
12168
12152
12064
11967
11719
11671
11646
11642
11693
11717
11860
11909
11968
12003
12175
12208
12110
11920
11809
11852
11914
11961
11965
12020
12022
12022
12038
12043
12024
12038
12069
12023
12003
12046
12067
12035
11918
11879
11906
11901
11892
11887
11946
11966
12000
11993
11957
12018
12061
12072
12070
12142
12212
12229
12267
12255
12202
12126
11995
11923
11854
11904
11997
11997
11953
11961
11886
11774
11668
11502
11390
11387
11425
11448
11482
11577
11718
11821
12042
12264
12323
12321
12293
12293
12278
12301
12263
12178
12150
12115
11856
11634
11476
11464
11554
11796
12096
12201
12237
12209
12183
12144
12158
12112
12126
12043
11822
11842
11937
12048
12128
12125
12090
12045
12008
12004
12041
11920
11884
11855
11936
12002
12065
12284
12180
12072
12005
11945
11846
11934
12021
11960
11801
11686
11583
11481
11411
11420
11544
11788
11879
11963
11989
12041
12167
12194
12141
12131
12159
12090
12114
12149
12204
12215
12252
12288
12325
12304
12304
12288
12300
12210
12073
11886
11810
11813
11980
11985
11955
11866
11794
11575
11397
11222
11052
11059
11166
11595
11748
11921
12088
12203
12283
12271
12245
12281
12313
12314
12351
12301
12231
12224
12256
12286
12312
12320
12198
12112
12047
11934
11783
11576
11402
11312
11242
11232
11354
11434
11539
11810
11907
12059
12227
12377
12431
12479
12431
12385
12313
12225
12062
11860
11689
11693
11786
11903
12096
12153
12104
11991
11886
11866
11941
12054
12122
12213
12323
12317
12352
12397
12461
12512
12589
12520
12459
12409
12313
11977
11709
11435
11155
10990
10937
10983
11106
11252
11330
11387
11413
11406
11431
11457
11457
11515
11799
11893
12066
12236
12358
12516
12608
12605
12594
12493
12371
12316
12281
12234
12177
12186
12118
12041
12020
12016
11976
12075
12174
12207
12269
12312
12337
12437
12391
12408
12388
12288
11957
11909
12010
12154
12241
12044
11890
11627
11335
11047
10786
10626
10804
10988
11163
11207
11477
11649
11826
11973
12193
12339
12570
12586
12632
12691
12690
12615
12607
12595
12493
12365
12312
12318
12329
12282
12103
11812
11267
11143
11148
11193
11139
11257
11479
11667
11713
11814
11907
12028
12056
12065
12150
12244
12360
12397
12458
12506
12484
12404
12396
12360
12328
12293
12234
12239
12215
12155
12030
11900
11583
11495
11425
11314
11222
11216
11366
11559
11768
12018
12224
12465
12612
12769
12913
12928
12946
13008
12986
12966
12824
12695
12421
12341
12240
12085
11965
11564
11264
10794
10312
9856
9666
9643
9850
10043
10249
10468
10459
10555
10785
11186
12203
12420
12618
12794
12893
12932
12941
12952
12898
12855
12780
12670
12570
12442
12415
12467
12387
12385
12459
12480
12467
12492
12383
12343
12258
12137
11932
11576
11485
11426
11397
11402
11599
11729
11850
11960
12008
12070
12054
12098
12086
12046
12009
12091
12139
12205
12242
12215
12190
12096
12134
12225
12288
12304
12452
12358
12228
12199
12190
12128
12071
12100
12018
11758
11520
11242
11267
11297
11254
11289
11385
11487
11574
11740
11803
11824
11923
11949
12062
12238
12322
12427
12573
12679
12675
12672
12660
12702
12640
12584
12506
12431
12355
12409
12451
12437
12477
12451
12200
11806
11418
10961
10538
10134
10125
10187
10173
10194
10509
10790
11090
11435
11781
12086
12601
12914
13185
13325
13383
13467
13434
13395
13301
13104
12897
12739
12482
12209
11835
11437
10575
10251
10062
10090
10222
10625
10869
10977
10880
10724
10639
10970
11299
11708
12074
12299
12667
12896
13031
13096
13139
13187
13116
13030
12952
12963
12909
12711
12592
12460
12321
12201
11867
11634
11426
11322
11373
11375
11250
11270
11335
11453
11597
11949
12183
12415
12546
12615
12537
12524
12535
12495
12493
12435
12421
12396
12328
12267
12270
12223
12080
11973
11830
11742
11700
11507
11384
11313
11247
11189
11291
11428
11548
11647
11755
11888
12184
12249
12260
12270
12385
12628
12672
12689
12731
12750
12747
12591
12503
12555
12591
12768
12951
12856
12715
12458
12191
11852
11848
11871
11826
11670
11477
11038
10850
10715
10767
10935
11279
11168
10901
10496
10172
9989
9940
9983
10218
10576
10948
11337
11832
12522
13391
13579
13694
13771
13783
13652
13539
13357
13143
12924
12769
12259
11954
11675
11343
11000
10545
10579
10624
10594
10492
10240
10288
10524
11092
11761
12251
12885
13141
13204
13178
13146
13222
13204
13158
13033
12814
12739
12558
12512
12502
12524
12417
12037
11686
11370
11188
11147
10981
10939
10904
10903
10877
10966
11385
11583
11810
12069
12272
12438
12463
12448
12483
12475
12461
12388
12337
12361
12450
12432
12436
12445
12412
12411
12518
12669
12971
13126
13407
13605
13646
13551
13413
13230
13074
12950
12615
12468
12363
12257
12087
11800
10798
10180
9503
9012
8627
8299
7996
7777
7725
7798
7941
8236
8875
9780
10748
11409
12404
12757
13010
13217
13347
13457
13354
13382
13522
13774
13983
14026
13890
13774
13762
13847
13857
13781
13758
13702
13550
13369
13094
12881
12687
12621
12693
12448
12151
11777
11224
10655
10039
8882
8152
7585
7243
7200
7448
7831
8385
9100
9841
10501
11195
11939
12623
13763
14152
14379
14471
14485
14469
14307
14186
13995
13823
13506
12769
12423
12174
11960
11775
11650
11313
11110
10904
10783
10609
10530
10677
10897
11056
11229
11668
11888
12091
12298
12516
12747
12950
13011
13129
13167
13249
13366
13408
13598
13883
13982
13931
13553
13346
13089
12826
12567
12152
12019
11821
11688
11555
11152
10916
10658
10336
9910
9451
9144
9086
9214
9432
9702
10049
10750
11297
11840
12284
12510
12455
12548
12648
12694
12713
12778
12902
12841
12774
12616
12384
12097
11673
11673
11623
11605
11774
12210
12462
12654
12729
12787
12946
13008
13060
13260
13660
14067
14115
13980
13762
13618
13537
12675
12257
11839
11510
11188
10838
9931
9646
9497
9341
9295
9276
9150
8906
8599
8204
7671
7245
7212
7576
8324
9122
9974
10786
11605
12416
13107
14224
14653
15001
15151
15223
15279
15098
14959
14829
14640
14198
13913
13675
13459
13246
13060
12509
12213
11777
11282
10798
10090
9886
9790
9808
9845
10045
10350
10734
11213
11927
12038
12152
12227
12356
12491
12800
12968
13096
13308
13551
13706
13596
13447
13359
13338
13233
12956
12870
12800
12693
12611
12265
11943
11503
10985
10454
9997
9915
10012
10214
10379
10366
10346
10633
10924
11066
11217
11280
11260
11424
11597
11777
12014
12263
12416
12486
12506
12478
12414
12488
12524
12514
12545
12573
12575
12427
12330
12234
12154
11987
11990
12146
12108
12153
12242
12284
12305
12402
12439
12449
12516
12689
12786
12752
12664
12677
12703
12457
12248
12034
11816
11607
11131
10715
10367
10185
10068
10059
10181
10314
10580
10936
11322
12249
12554
12681
12834
13006
13159
13424
13301
13080
12866
12658
11697
11182
10813
10645
10692
11173
11456
11824
12240
12692
12972
12613
12353
12103
11747
11340
11048
11224
11537
11820
12139
12276
12084
12194
12252
12023
11701
11188
10816
10489
10247
10168
10244
10554
10838
11190
11587
11975
12613
12841
13066
13279
13300
13008
12833
12828
12821
12853
12823
12755
12738
12776
12845
12876
12840
12805
12788
12814
12859
12908
13041
12842
12599
12369
12191
11902
11803
11827
11950
12040
11993
11900
11723
11515
11311
11112
10611
10453
10351
10092
9759
9539
9564
9738
10103
11286
11951
12583
13194
13636
14158
14210
14173
14128
14040
13884
13505
13108
12745
12530
12467
12331
12387
12390
12338
12185
12127
11423
10832
10206
9579
8924
8292
7823
7673
7863
8224
8625
9148
9818
10452
11819
12529
13136
13597
13792
13974
14142
14187
14213
14162
14083
13763
13633
13463
13287
13107
13174
13140
12942
12827
12723
12640
12476
12439
12287
12231
12190
11983
11829
11709
11866
12176
12321
12203
12085
11951
11780
11554
11052
10685
10276
9982
9821
9779
9708
9695
9678
9558
9593
9670
9772
9861
10004
10192
10828
11279
11921
12539
12990
13737
14032
14202
14170
14068
13974
14158
14259
14325
14354
14293
13811
13507
13158
12806
12426
11228
10530
9904
9387
9045
8997
9135
9394
9717
10010
10200
10392
10748
11084
11567
12029
12423
13025
13147
13148
13212
13200
13192
13401
13376
13305
13409
13570
13703
13667
13565
13331
13038
12773
12388
12294
12064
11921
11816
11570
11583
11563
11460
11213
10839
10105
9908
9881
10015
10274
10625
11015
11495
11643
11799
11961
12024
11861
11734
11757
11929
12088
12204
12542
12654
12855
13180
13584
13985
13852
13564
13210
12941
12582
12449
12402
12226
11958
11658
11298
11190
11043
10935
10812
10509
10244
9765
9242
9070
9190
9433
9833
10429
11106
11799
13221
13679
13968
14181
14278
14276
13969
13725
13488
13356
13161
12984
12858
12600
12430
12429
12422
12442
12490
12486
12305
12016
11345
10842
10415
10302
10441
10837
10856
10707
10383
10043
9809
9625
9639
9884
10422
11062
11742
12249
12550
12761
13078
13248
13373
13362
13331
13437
13278
13104
12930
12880
12864
12721
12610
12535
12417
12197
11862
12073
12515
13026
13559
14091
14130
14105
14048
13880
13775
13417
13286
12986
12558
12146
11301
10675
10042
9459
8755
8058
7329
6532
5768
5151
4786
4836
5204
5923
6841
7767
8841
10153
12473
13551
14436
15133
15564
15769
15796
15802
15768
15553
15271
14827
14580
14350
14165
13918
13740
13388
13160
12917
12754
12695
12563
12485
12436
12420
12381
12331
12242
12098
11737
11341
11034
10550
10424
10438
10587
10701
10907
10970
11027
11052
10976
10942
11238
11556
11907
12313
12534
12805
12984
13218
13486
13663
13694
13657
13666
13561
13502
13409
12853
12492
12153
11850
11553
11197
10962
10722
10544
10431
10264
9889
9658
9391
9162
9072
9227
9525
9936
10456
10923
11222
11543
11957
12875
13162
13267
13306
13359
13746
14116
14319
14422
14500
14189
13667
13026
12420
11885
11475
11097
11184
11348
11579
11824
12087
11889
11457
10997
10744
10579
10212
10202
10279
10454
10784
11655
12011
12279
12386
12319
11998
12080
12240
12320
12315
12231
12357
12383
12484
12638
12932
13355
13462
13508
13427
13311
13269
12975
12693
12398
12080
11822
11251
10901
10647
10614
10799
11119
11781
12147
12459
12592
12590
12336
12139
12009
11941
12044
12143
12087
12162
12219
12151
11915
11400
11346
11489
11574
11696
11571
11180
10737
10463
10332
10320
10795
11126
11391
11642
11753
11508
11415
11267
11155
11262
11702
11966
12176
12407
12645
12889
13042
12881
12829
12875
12822
12673
12627
12628
12619
12494
12254
11950
12219
12481
12585
12604
12754
13080
13305
13418
13483
13720
13907
13885
13723
13404
13042
12407
12141
11807
11349
10920
10551
10545
10444
10199
10020
9985
10081
9716
9428
9151
9022
8956
8747
8647
8628
8856
9358
10062
10692
11332
11986
13229
13747
14177
14469
14626
14580
14026
13819
13779
13774
13719
13597
13554
13438
13230
13006
12678
11847
11459
11232
11165
11206
11570
11974
12353
12590
12870
13435
13530
13466
13241
12906
12559
12030
11639
11225
10984
10923
10742
10553
10239
9817
9422
9119
8933
8882
8837
8774
8781
9113
9496
9914
10437
11237
13201
14257
15129
15514
15684
15547
15304
15079
14940
14704
14561
14458
14298
14170
13970
13623
12605
12311
12055
11667
11303
10656
10436
10316
10115
9891
9692
9672
9736
9982
10243
10198
10245
10519
10872
11034
11017
10861
10765
10766
10891
11067
11345
11506
11808
12122
12542
13332
15048
15520
15653
15550
15197
14306
13946
13586
13091
12541
11534
11144
10804
10513
10284
10085
10074
9873
9466
8941
8570
8385
8335
8294
8425
8755
9397
10360
11357
12265
13495
13694
13792
13837
13854
13805
13667
13435
13249
13133
13208
13430
13418
13253
12978
12684
12363
11982
12176
12580
13110
13750
14166
13978
13715
13513
13544
13452
13215
12899
12587
12400
12390
12443
12211
11818
11256
10630
9436
8839
8292
7608
7092
7050
7392
7956
8684
9308
9769
10238
10918
11668
12347
12852
13317
13477
13513
13459
13497
13761
13934
14133
14369
14431
14342
13623
13160
12655
12249
11905
11615
11677
11784
11858
11922
12019
12214
12524
12761
12850
12752
12409
12064
11665
11346
11153
11440
11628
11669
11476
11174
10756
10076
9929
9921
10118
10480
10865
11195
11644
11854
12092
12283
12279
11774
11424
11245
11150
11203
11342
11558
11586
11574
11731
11993
12946
13539
14192
14592
14662
14555
14326
14213
14138
14018
13885
13608
13460
13187
12749
12317
11587
11320
11058
10841
10728
10567
10694
11048
11441
11705
11828
11655
11511
11467
11477
11464
11413
11166
11024
10864
10640
10287
9448
9123
8869
8781
8894
9076
9516
10193
10984
11835
12575
13170
13985
14340
14654
14783
14799
14828
14829
14790
14653
14434
14104
13485
13142
12865
12649
12499
11918
11426
10900
10591
10382
10156
9934
9980
10033
10085
10134
10288
10451
10919
11197
11435
11705
11937
12402
12640
12751
12814
12868
12947
12894
12856
12781
12655
12428
12110
11995
11940
11959
12016
11990
11781
11430
11160
11184
11447
12218
12709
13107
13369
13331
12928
12798
12678
12509
12377
12119
11304
10929
10787
10800
10904
11044
10793
10588
10541
10736
11069
11905
12335
12636
12860
12920
12741
12591
12437
12194
12035
12093
12127
12260
12487
12585
12627
12534
12377
12293
12248
12241
12113
11889
11665
11526
11419
11328
11198
11164
11101
11142
11283
11641
11628
11562
11622
11750
11965
12135
12413
12696
12867
13007
12986
12863
12759
12579
12404
12115
12092
12021
11759
11528
11393
11254
11258
11290
11392
11537
11959
12179
12330
12350
12398
12655
12718
12759
12854
12845
12738
12426
12101
11897
11710
11476
10955
10710
10681
10606
10481
10413
10527
10749
11008
11203
11312
11746
12047
12334
12566
12648
12658
12482
12359
12395
12466
12484
12690
12724
12806
12804
12784
12827
12951
13030
12964
12769
12586
12462
12491
12652
12695
12579
12048
11754
11478
11351
11324
11261
11062
11113
11244
11471
11509
11501
11405
11144
10764
10180
8946
8661
8645
8815
9297
10220
11209
12022
12637
13138
14008
14129
14154
14117
14062
13990
13538
13323
13177
13063
12943
12792
12710
12673
12580
12503
12427
12040
11796
11685
11693
11668
11548
11632
11743
11816
11971
12207
12282
12178
12055
11994
11942
11800
11721
11731
11741
11875
12235
12257
12120
11893
11676
11518
11315
11220
11117
11080
11262
11725
11963
12215
12347
12343
12352
12158
11925
11692
11470
11268
10979
10813
10763
10821
11007
11545
11844
12043
12218
12401
12616
12849
12809
12752
12701
12802
12942
12929
12909
12856
12798
12689
12317
12169
12144
12142
12065
11908
11853
11840
11858
11917
12348
12590
12578
12356
12003
11523
10622
10356
10344
10519
10795
11186
11232
11144
10941
10713
10644
10706
10786
10912
11125
11447
12083
12469
12739
13006
13180
13238
13080
12967
12882
12912
12923
12732
12712
12763
12796
12740
12704
12624
12405
12143
11995
11912
11858
11872
11878
11953
12009
12036
12091
12125
12153
12217
12101
11813
11832
11969
12061
12046
11790
11749
11782
11741
11633
11574
11545
11531
11473
11330
11160
10970
11088
11220
11352
11481
11712
11738
11668
11491
11406
11350
11527
11802
12126
12418
12647
12959
13024
13073
13069
13045
13115
13342
13344
13315
13247
13114
12824
12624
12353
12097
11915
11442
11310
11229
11036
10728
10402
9791
9786
9987
10231
10450
10703
10955
11018
11215
11394
11604
11903
12390
13175
13345
13479
13516
13449
13443
13342
13191
12986
12812
12699
12387
12104
11863
11709
11638
11580
11440
11249
11043
10814
10622
10831
11090
11372
11694
12061
12542
12724
12809
12753
12661
12611
12422
12189
11985
11887
11886
12001
11984
12020
12121
12078
12017
12038
12024
11934
11837
11683
11273
11314
11487
11661
11749
11823
12024
12110
12303
12477
12540
12576
12530
12476
12442
12392
12222
12171
12055
11882
11733
11544
11518
11650
11801
11866
11885
11933
12029
12063
12007
11947
11969
12124
12172
12262
12391
12482
12353
12247
12263
12297
12297
12109
11876
11544
11353
11214
10997
10692
10733
11013
11359
11625
11907
12059
12219
12326
12351
12403
12303
12192
12068
11984
11898
11924
11929
11988
12030
12065
12051
11952
11761
11553
11494
11545
11859
12099
12223
12300
12379
12477
12452
12408
12413
12355
12300
12339
12299
12242
12194
12144
12020
11934
11828
11721
11582
11532
11654
11664
11531
11475
11479
11565
11696
11827
11918
11928
12009
12104
12151
12184
12207
12240
12416
12427
12445
12390
12346
12362
12479
12469
12449
12462
12490
12256
12058
11753
11459
11267
10995
11052
11184
11353
11435
11818
11851
11850
11817
11747
11595
11562
11770
11955
12026
12035
12136
12167
12208
12280
12356
12400
12443
12485
12473
12310
12217
12121
11976
11857
11859
11912
11916
11835
11812
11884
12015
12134
12315
12410
12439
12404
12385
12357
12219
12155
12125
12094
12141
12129
12127
12028
11798
11488
10770
10435
10307
10333
10470
10565
11045
11225
11375
11464
11692
12200
12420
12517
12493
12451
12312
12325
12415
12497
12542
12521
12469
12404
12412
12433
12399
12562
12625
12676
12693
12693
12680
12564
12509
12412
12317
12205
11977
11853
11834
11735
11614
11137
10943
10721
10513
10317
10217
10499
10831
11159
11554
11817
12119
12284
12432
12471
12508
12550
12576
12491
12438
12434
12427
12400
12328
12353
12347
12285
12287
12261
12211
12177
12178
12152
12055
12079
12061
12068
12061
11980
11987
11958
12013
12188
12309
12371
12365
12263
12172
12108
11920
11826
11748
11702
11691
11736
11839
11893
11932
11961
11914
11618
11437
11290
11185
11165
11260
11336
11462
11524
11643
11875
12072
12064
11994
11926
11939
12001
12047
12042
12142
12239
12345
12376
12344
12300
12236
12210
12195
12155
12093
12101
12173
12272
12127
11985
11832
11742
11717
11675
11732
11787
11785
11844
11999
11979
11873
11892
11974
12030
12026
12058
12099
12095
12136
12156
12152
12105
12072
12073
12087
11949
11955
11935
11917
11918
11987
12038
12054
12011
11983
11981
11988
12005
12042
12116
12090
12037
12023
11992
11956
11952
11927
11903
11874
11908
11918
11925
11801
11824
11812
11766
11816
11894
11905
11941
11946
11892
11897
11955
12045
12072
12141
12140
12234
12260
12230
12194
12147
12071
12067
12121
12145
12138
12137
12061
11993
11977
11951
11847
11696
11739
11806
11799
11717
11741
11863
11801
11577
11312
11147
11002
11030
11180
11361
11553
12072
12263
12445
12567
12626
12639
12557
12383
12301
12249
12130
11970
11909
11902
11877
11828
11757
11726
11792
11853
11971
12110
12171
12193
12230
12197
12097
12062
12050
12061
12067
12078
12092
12042
12023
11992
12012
11980
11914
11995
12024
12025
12029
12030
11969
11934
11961
11974
11973
12007
12104
12071
11995
12013
12036
11989
11960
11956
11966
11971
11947
11956
11909
11911
11896
11896
11922
11928
11974
12009
12019
11976
12045
12095
12063
12028
12122
12150
12136
12092
12090
12047
11944
11995
11980
11968
11938
11903
11901
11815
11723
11691
11687
11700
11762
11846
11882
11860
11860
11830
11789
11729
11657
11761
11872
11991
12058
12107
12123
12199
12215
12200
12163
12164
12132
12148
12147
12028
12047
12064
12120
12115
12145
12178
12151
12072
11989
11943
11994
12035
11897
11828
11845
11979
12052
12049
12058
12030
11962
11933
11889
11890
11757
11682
11623
11561
11598
11596
11618
11777
11887
11979
12122
12126
12139
12155
12179
12125
12127
12161
12093
12026
12070
12036
12035
12004
12038
12039
11951
11941
11866
11840
11817
11859
11843
11764
11820
11916
11940
12057
12049
12045
12049
12059
12069
12081
12042
12019
12001
12014
11979
11957
11955
11921
11899
11926
11929
11924
11909
11885
11936
11902
11937
11946
11973
12002
12021
12011
11992
11993
12013
12022
12069
12115
12140
12094
12045
11989
11949
11969
11991
11951
11893
11890
11908
11919
11954
11946
11958
11894
11881
11976
11996
11977
12008
11986
11996
12029
12034
11993
12043
12068
12118
12071
11953
11854
11845
11900
11900
11835
11801
11770
11739
11723
11664
11634
11642
11680
11745
11822
11887
11937
11966
12032
12127
12216
12353
12418
12466
12523
12571
12363
12297
12238
12194
12127
12110
11860
11727
11706
11732
11672
11624
11612
11603
11552
11573
11743
11867
11926
11880
11897
11912
11985
11933
12018
12062
12171
12173
12165
12107
12078
12084
12077
11991
12038
12018
12007
12029
11976
11956
11945
11966
11991
12072
12038
12029
11972
11934
11966
12110
12087
12099
12128
12165
12076
12040
12047
12035
11974
11951
11965
11920
11788
11782
11784
11694
11702
11719
11727
11759
11879
12029
12018
12051
12015
12024
12004
11991
11960
12027
12018
11917
12020
11990
11999
12058
12068
11957
11979
11994
12014
11986
11932
11922
11960
11914
11897
11941
12023
12028
12030
11993
11961
11918
11944
11956
11993
11996
12013
12005
11964
11881
11855
11941
11946
11943
11962
12002
12046
11962
11881
11893
11926
11979
11961
12028
12030
12037
12004
11993
12009
12004
11962
11964
11980
12055
12039
12033
12037
12040
12001
11932
11889
11945
11976
11972
11978
11897
11872
11879
11852
11878
11989
11994
11976
11992
11875
11806
11870
11911
11950
12051
12060
11983
11988
12042
12098
12123
12174
12137
12144
12144
12158
12127
12059
12004
12047
12095
12050
11882
11873
11894
11891
11912
11935
11965
11916
11775
11655
11570
11349
11303
11349
11398
11463
11731
11885
12016
12103
12189
12328
12316
12180
12160
12208
12157
12142
12204
12200
12160
12137
12133
12081
12051
12040
12018
12045
12014
11917
11851
11815
11876
12010
12005
11981
11960
11976
12035
11987
11932
11928
11943
11869
11863
11947
11992
11987
12037
12014
11981
11966
11977
12016
12064
12048
12043
12021
12043
12005
11979
12012
11977
11970
11976
11993
11875
11850
11843
11846
11840
11900
11944
11974
12004
12006
11984
11959
11977
12016
12021
11996
12016
12097
12088
11993
11994
11998
11981
11961
11929
11917
11915
11928
11950
11906
11864
11873
11935
11914
11937
11984
12011
12009
11962
11955
11980
12012
12000
12036
12040
12024
11994
12029
12013
12027
12029
12016
11989
11964
11916
11967
11941
11842
11888
11911
11904
11962
11961
11943
11948
11852
11805
11823
11897
11981
12134
12163
12178
12124
12069
11932
11898
11914
11974
11983
11970
11997
12007
12003
11961
11908
11925
11909
11901
11925
11959
11914
11937
11900
11937
11956
11996
12036
12123
12087
12104
12093
12037
12001
12001
11966
11975
11976
12003
12007
12009
11968
11858
11896
11888
11882
11914
11932
11961
12002
11982
11963
11996
12007
11943
12001
12007
11990
12028
12042
12077
12034
12010
12025
12020
12026
12011
12014
12056
11979
11852
11888
11887
11926
11912
11992
12048
12050
12038
12090
12123
12055
12040
12045
12051
11999
11965
11849
11733
11649
11574
11474
11518
11595
11711
11814
11855
11847
11905
11919
11945
12014
12058
12135
12129
12097
12085
12108
12145
12191
12264
12312
12280
12251
12243
12180
12084
12003
11908
11796
11763
11803
11787
11769
11744
11841
11917
11933
11979
12035
12064
12090
12071
12038
12015
11954
12024
12029
12056
12072
12041
11964
11925
11915
11956
11969
11985
11990
12028
12032
12021
11983
11906
11849
11887
11889
11979
11943
12002
11988
11945
11952
12000
12011
11990
12040
12070
12045
11985
11988
11993
11990
11973
12014
12009
11984
11951
11938
11973
11852
11854
11842
11844
11897
12030
12044
12062
12048
12025
12060
12061
12106
12189
12318
12381
12374
12437
12443
12425
12413
12342
12236
12079
11838
11511
11208
10585
10457
10484
10633
10810
11181
11363
11617
11864
12029
12153
12295
12376
12363
12392
12451
12414
12437
12490
12425
12368
12307
12317
12291
12277
12254
12268
12169
12089
12109
12033
11953
11772
11666
11558
11411
11325
11399
11740
11865
12007
12105
12185
12231
12213
12169
12142
12087
12099
12070
12049
12059
12032
12022
11974
11923
11927
11925
11963
12088
12120
12154
12174
12219
12277
12485
12475
12459
12439
12487
12076
11792
11560
11497
11437
11384
11248
11087
11006
10972
11068
11527
11645
11821
11973
12051
12143
12189
12206
12229
12244
12239
12185
12212
12249
12253
12292
12363
12351
12345
12292
12265
12149
11872
11801
11706
11591
11657
12028
12139
12134
12107
12008
11928
11981
12055
12120
12099
11939
11580
11519
11515
11606
11722
12046
12066
12088
12081
12058
12056
12179
12233
12248
12272
12329
12374
12324
12223
12190
12129
11882
11813
11799
11743
11754
11797
11613
11466
11392
11354
11277
11293
11445
11608
11802
11991
12077
12156
12168
12196
12190
12214
12227
12217
12144
12031
12060
12130
12214
12287
12325
12356
12385
12298
12269
12273
12268
12205
11979
11943
11826
11767
11774
11754
11634
11599
11568
11603
11603
11673
11701
11698
11730
11809
11931
12067
12037
12115
12169
12166
12137
12101
12118
12087
12098
12116
12211
12202
12188
12255
12346
12213
12217
12184
12176
12245
12132
11875
11564
11355
11274
11366
11477
11581
11729
11821
11829
11908
11916
11998
12114
12178
12199
12246
12278
12377
12418
12381
12203
12172
12154
12137
12132
12205
12147
12024
11817
11466
11266
11228
11407
11628
11786
11899
11998
12017
12040
12152
12221
12349
12526
12585
12571
12455
12467
12261
12062
11953
11869
11870
11969
11998
11944
11713
11386
11115
10956
11024
11083
11155
11265
11402
11530
11666
11832
11922
11971
12299
12504
12607
12659
12734
12703
12604
12558
12517
12497
12445
12299
12328
12321
12261
12123
12096
12011
11847
11703
11446
10938
10829
10814
10887
11027
11214
11578
11725
11876
12113
12258
12228
12217
12190
12178
12127
12117
12045
12074
12132
12125
12149
12154
12218
12258
12196
12256
12368
12364
12345
12308
12329
12299
12204
12185
12203
12174
12147
12094
11979
11815
11705
11543
11349
11189
11299
11416
11467
11488
11547
11651
11744
11814
11875
11990
12022
12098
12132
12113
12176
12231
12265
12443
12679
12899
12959
12949
12943
12886
12816
12798
12634
12489
12307
12226
12225
12204
12156
11986
11732
11377
11065
10542
10362
10189
10119
10180
10385
10534
10702
11063
11276
11646
11834
11994
12085
12135
12085
11884
11865
12022
12320
12623
13082
13307
13408
13509
13552
13601
13513
13393
13340
13260
13171
13089
13067
12958
12892
12675
11386
10521
9786
9288
9118
8975
8866
8940
9114
9367
9714
10091
10481
10834
11509
11849
12110
12322
12568
12837
13112
13143
13212
13321
13343
13225
13215
13211
13112
12970
12864
12744
12640
12597
12568
12552
12393
12398
12391
12281
12149
11682
11473
11255
11101
11006
10961
11017
11075
11182
11274
11432
11759
11854
12013
12117
12191
12294
12370
12415
12423
12435
12466
12542
12589
12603
12588
12589
12493
12405
12358
12362
12347
12400
12689
12802
12809
12718
12705
12488
12104
11744
11437
11211
10910
10887
11007
11100
11082
11001
10746
10606
10450
10385
10465
10555
10659
10715
10851
11016
11213
11590
11789
11985
12173
12457
13150
13374
13489
13671
13719
13697
13464
13348
13240
13046
12880
12742
12701
12704
12740
12795
12318
11857
11304
10742
10263
9910
9722
9708
9725
10018
10198
10449
10769
11124
11510
12236
12503
12637
12736
12852
13311
13379
13466
13725
14113
14394
14428
14329
14125
13878
13654
13251
13042
12916
12796
12675
12545
12247
11887
11454
10811
10039
8651
8119
7816
7644
7593
7590
7718
7967
8327
8842
9512
10217
10902
11442
11825
12476
12661
12898
13126
13314
13461
13765
13854
13915
13917
13946
13969
13912
13787
13639
13512
13347
13188
13091
12985
12918
12959
12826
12708
12571
12332
12117
11921
11640
11465
11324
11090
10788
10404
10372
10400
10544
10648
10845
10931
11039
11196
11472
11635
11881
12006
12126
12239
12412
12760
12831
12904
12911
12870
12827
12607
12516
12474
12459
12437
12479
12476
12412
12391
12365
12270
12155
11966
11794
11736
11724
11626
11547
11430
11395
11455
11609
11735
11800
11784
11705
11546
11032
10700
10512
10488
10573
10908
11208
11512
11753
11967
12329
12523
12664
12880
13066
13351
13767
13877
13943
13939
13818
13486
13252
13013
12758
12487
12264
11892
11612
11369
11142
10889
10619
10519
10284
9980
9789
9724
9760
9918
10098
10293
10709
10977
11265
11566
11799
12080
12662
12910
13209
13576
13803
13896
13878
13768
13572
13345
13125
13054
12972
12863
12746
12670
12093
11679
11297
10897
10470
9813
9673
9622
9620
9573
9523
9655
9910
10243
10693
11128
11428
11735
12273
12480
12675
12722
12838
13240
13467
13606
13668
13684
13595
13508
13390
13301
13240
13222
13166
13095
12954
12835
12608
12454
12201
11965
11758
11568
11321
10954
10734
10587
10542
10534
10630
10777
10873
11093
11288
11388
11410
11347
11395
11499
11573
11748
12014
12207
12359
12413
12509
12844
12950
13141
13245
13363
13830
13909
13961
13931
13819
13697
13156
12720
12319
11979
11451
10427
9998
9717
9661
9815
10115
10378
10447
10289
9630
9353
9165
9191
9459
9985
10606
11162
11673
12179
12511
12907
13059
13182
13223
13264
13416
13443
13404
13320
13235
13164
13240
13173
13024
12882
12723
12658
12616
12565
12567
12568
12466
12076
11783
11526
11283
11124
11120
11119
11112
11145
11228
11455
11544
11740
11883
11946
12075
12250
12246
12256
12235
12183
12325
12425
12500
12603
12634
12709
12866
12897
12945
13005
13069
12926
12661
12300
11942
11660
11420
11407
11424
11421
11267
11004
10454
10195
10007
9951
9907
9961
10208
10496
11364
11771
12035
12250
12392
12578
12496
12526
12693
12902
13056
12934
12786
12689
12631
12670
13094
13198
13189
13135
12975
12751
12011
11481
10892
10326
9771
9281
8865
8645
8713
9052
9622
10396
11769
12326
12683
12835
12927
12979
12805
12594
12327
12050
11541
11514
11591
11703
11994
12235
12561
12584
12566
12605
12745
12964
13075
13177
13118
13108
13091
13017
12929
12831
12734
12586
12382
12256
12195
12109
12051
12106
12055
11981
11986
11985
11891
11796
11737
11687
11622
11611
11536
11354
11294
11169
11061
10958
10983
11074
11247
11446
11687
12172
12421
12565
12679
12781
12885
12963
12998
13064
13120
13099
12997
12940
12792
12688
12644
12225
11979
11803
11615
11306
10998
10468
10258
10105
9971
9878
9840
9937
10262
10651
10931
10916
10896
10933
11058
11400
11636
11833
12079
12346
12614
13049
13316
13468
13503
13510
13423
13378
13380
13284
13208
13085
12790
12616
12486
12435
12372
12169
11957
11711
11447
11202
10876
10859
10851
10856
10962
11173
11613
12064
12531
13043
13431
13528
13537
13578
13486
13349
13268
12885
12708
12522
12305
12069
11576
11416
11241
11004
10666
9828
9326
8887
8381
8014
7988
8270
8851
9545
10341
10919
11212
11482
11709
12086
12295
12573
12906
13237
13727
13877
14022
14168
14196
14166
13895
13727
13515
13403
13235
12916
12789
12804
12890
12882
12828
12504
12411
12406
12328
12158
11724
11594
11490
11310
11129
10959
10770
10720
10758
10839
10853
10788
10830
10904
11056
11165
11291
11434
11635
11904
12210
12480
12876
13225
13567
13739
13812
13821
13787
13646
13537
13379
13207
13028
13128
13280
13364
13176
12250
11357
10369
9377
8414
7491
6913
6856
7201
7863
8787
9563
10083
10454
11051
11206
11273
11276
11350
11543
11753
11940
12100
12271
12585
13410
13841
14239
14458
14505
14352
14199
14098
14053
13931
13614
13381
13168
12899
12628
12432
12368
12379
12376
12304
12196
11786
11506
11179
10850
10551
10368
10431
10553
10655
10746
10910
11369
11599
11787
11966
12107
12333
12439
12565
12604
12578
12535
12702
12864
12978
13008
13139
13319
13419
13573
13522
13334
13103
12691
12463
12220
12024
11794
11311
11200
11163
11074
10870
10458
10127
9668
9220
8856
8549
8400
8510
8850
9316
9850
10496
11247
11998
12862
13101
13229
13294
13422
13642
14009
13921
13771
13695
13604
13202
13090
13066
12964
12808
12544
12539
12575
12553
12523
12464
12640
12654
12576
12473
12274
11661
11398
11189
10975
10927
11094
11611
11809
11800
11681
11522
10895
10627
10417
10316
10442
10969
11185
11353
11531
11683
11774
12018
12150
12194
12198
12285
12727
12925
13013
13075
13231
13446
13331
13163
13045
12921
13031
13467
13241
12874
12511
12239
12026
11675
11448
11173
10984
10763
10230
10097
9920
9779
9658
9568
9568
9511
9550
9862
10185
10325
10491
11188
11666
12098
12531
13188
14138
14424
14635
14738
14623
14546
14428
14178
13827
13430
13019
11948
11427
11095
11029
10921
10776
10767
10710
10557
10374
10258
10051
10026
10155
10229
10318
10724
11094
11615
12318
13034
13830
14872
15115
15261
15278
15366
15356
15193
14924
14563
14125
13173
12853
12565
12218
11860
11464
10416
9732
9030
8337
7670
7241
6959
6840
6703
6746
7152
7609
8156
8741
9388
10171
10943
11655
13436
14284
14846
15199
15268
15256
15112
15081
14979
14886
14783
14596
14301
13904
13573
13112
12619
12315
12053
11808
11701
11683
11789
11789
11817
11791
11825
11811
11740
11717
11774
11812
11793
11734
11602
11475
11505
11638
11716
11452
11114
10906
10889
11109
11147
11188
11218
11377
11736
12311
12527
12685
12741
12650
12206
12169
12254
12252
12312
12319
11876
11665
11667
11822
11968
12185
12188
12219
12179
12008
12151
12294
12264
12342
12708
13166
13258
13041
12703
12311
11980
11420
11179
10922
10705
10592
10545
10197
10079
9895
9589
9203
8957
8838
8734
8603
8599
8792
9058
9308
9680
10157
10821
12074
12503
12998
13570
14203
14886
15886
16121
16305
16625
17136
17633
17410
17038
16588
16021
14791
13967
12943
11922
11055
10335
8949
8270
7899
7900
8015
8036
8094
8099
8134
8248
8523
8662
8631
8636
8946
9437
10019
10709
11406
11992
12924
13452
13802
14093
14327
14520
14467
14314
14141
14115
14182
14577
14856
15068
15127
15158
15183
15151
15051
14836
14538
13994
13688
13151
12516
11747
10959
9838
9469
9280
9268
9277
9230
9042
8883
8650
8170
7622
7249
7218
7347
7603
7858
8155
8528
9054
9517
9860
10223
10526
10830
11161
11923
12512
13167
14052
14876
15758
15973
16089
16023
15893
15535
15302
15040
14740
14430
14118
13458
13181
12922
12555
12000
10768
10180
9719
9516
9558
9655
9817
9983
10087
10189
10551
11628
12169
12570
12842
13147
13495
14066
13979
13700
13408
13220
13097
12826
12368
11984
11688
11219
11051
10774
10516
10269
10062
10241
10539
10938
11307
11524
11734
11710
11764
11999
12358
12658
12992
13076
13275
13524
13742
13717
13516
13356
13139
12753
12019
11791
11534
11214
10865
10595
10495
10628
10743
10674
10521
9732
9191
8712
8330
8289
8468
8810
9386
10010
10623
11263
11961
12660
14464
15225
15686
16012
16245
16155
16024
15872
15558
15015
14401
13576
13272
12875
12568
12209
11455
11009
10599
9981
9336
8767
8300
8001
7875
7944
8157
8445
8785
9308
10006
10760
12016
12419
12900
13393
13673
14233
14605
14837
14803
14579
14447
14102
13935
13828
13715
13461
12886
12680
12462
12254
11971
11308
11201
11205
11243
11250
11138
10853
10758
10681
10484
10277
10291
10540
11054
11629
12115
12255
12116
11979
11845
11679
11475
10928
10878
11065
11170
11201
11730
12020
12214
12294
12271
12053
11399
11074
10857
10872
11020
11842
12398
12946
13492
13994
14376
14620
14580
14483
14266
13930
13206
12888
12494
12136
11854
11609
11129
10969
10743
10340
9930
9577
9268
9146
9110
9171
9778
10382
11011
11528
12029
12413
12757
13443
13674
13798
14030
14203
14334
14321
14298
14208
13996
13742
13304
13158
13032
12814
12412
11290
10852
10341
9835
9614
9604
9999
10446
11036
11860
11889
11843
11623
11224
10870
10796
11226
11692
12140
12641
13459
13660
13525
13109
12453
10619
9615
8862
8260
7903
7861
8131
8745
9654
10661
11678
12543
13247
14603
15243
15743
16000
16131
16016
15396
14983
14711
14437
14160
13544
13251
12806
12334
11873
11299
11012
10529
9918
9430
9021
8518
7902
7368
7020
6890
7107
7492
7909
8615
9566
10684
11677
13280
14052
14684
15111
15264
15260
15165
15011
14880
14727
14560
14143
13989
13879
13609
13203
12449
11948
11494
11109
10845
10802
10785
10763
10851
10897
10828
10488
10447
10478
10634
10820
11379
11783
12278
12833
13197
13192
12813
12461
12255
12162
12007
11675
11506
11409
11181
11007
10913
11046
11182
11409
11762
12095
12861
13308
13575
13791
13900
14023
13919
13680
13349
13119
13138
12898
12462
11854
11127
10289
8505
7888
7438
7309
7628
8208
8862
9645
10558
11381
11923
12285
12697
13379
13677
13767
13849
14018
14206
14110
13930
13658
13316
12936
12359
11947
11476
11161
11114
11249
11324
11462
11516
11534
11662
11693
11669
11549
11388
11301
11152
11182
11504
12232
13028
14068
14273
14227
14102
13859
13536
12849
12516
12382
12310
12157
11753
11499
11238
10893
10621
10373
9791
9703
9571
9486
9351
9361
9686
10161
10724
11448
12257
13563
13872
14085
14336
14461
14467
14398
14221
13901
13503
13046
12206
11803
11513
11437
11520
11710
11708
11429
10970
10510
10174
9909
9897
10134
10358
10491
10717
11066
11592
11705
11779
11858
12075
12299
12917
13081
13156
13065
12941
12752
12671
12508
12483
12552
12593
12521
12552
12587
12589
12503
12385
12604
12779
12803
12861
12793
12579
12365
12089
11740
11297
10648
10579
10655
10824
10938
11131
11072
10969
10858
10775
10709
10904
11060
11234
11487
11877
12617
12987
13202
13306
13218
12880
12904
12939
12837
12667
12475
12210
12166
12265
12433
12508
12985
13309
13635
13797
13827
13711
12974
12626
12416
12321
12252
11950
11783
11497
11081
10695
9788
9275
8682
8015
7387
7050
7209
7842
8907
10164
11179
11742
11901
11945
12151
12333
12620
13077
13742
14272
14472
14437
14275
14001
13712
13215
13107
13063
12947
13006
13032
12897
12709
12621
12359
11824
10410
9860
9652
9730
10118
10706
11118
11445
12204
12436
12383
12248
12338
12614
12635
12575
12543
12736
12906
13080
13144
13038
12756
12439
11601
11151
10819
10801
10784
10687
10727
10819
10948
11044
11188
11689
11837
11917
12014
12111
12550
12850
13099
13238
13313
13463
13449
13310
13178
12969
12723
11793
11298
10834
10477
10314
10317
10490
10847
11404
12032
12468
12837
12812
12717
12572
12549
12702
12948
12936
12873
12656
12229
10957
10397
9913
9579
9354
9514
9884
10312
10759
11249
12007
12205
12455
12705
12873
13127
13192
13247
13258
13247
13232
12902
12582
12348
12374
12572
12519
12399
12169
11847
11646
11714
12049
12151
12268
12363
12320
11722
11473
11321
11114
10888
10839
10702
10539
10471
10624
10778
11154
11519
11840
12170
12494
13082
13137
13094
13097
13066
12929
12497
12476
12475
12322
12101
11520
11133
10725
10654
10941
11290
11669
11896
12038
12097
12063
12205
12229
12370
12816
13247
13254
13178
13177
13112
12800
12540
11975
11817
11687
11699
11842
11844
11617
11339
11148
10964
10618
10425
10444
10448
10610
10943
11241
11322
11576
11917
12213
12560
12748
12864
12894
12964
13170
13315
13207
13042
12910
12696
12275
12318
12352
12333
12389
12578
12892
12554
12208
11898
11477
10629
10553
10719
10865
11031
11076
10868
10761
10772
10725
10821
11253
11491
11635
11647
11727
12157
12338
12477
12690
13012
13175
12989
12919
12687
12440
12245
12184
11922
11779
11811
11944
12092
12591
12823
12956
12907
12778
12480
12437
12318
12314
12310
11867
11569
11287
10936
10509
10177
10150
10431
10638
10949
11409
12077
12290
12542
12748
12836
12894
12718
12607
12472
12500
12519
12355
12306
12417
12481
12315
12090
12010
11903
11811
11683
11619
11810
11975
12160
12257
12353
12415
12374
12307
12283
12212
12192
12318
12275
12304
12398
12408
12025
11534
10861
10244
9790
9550
9518
9643
10065
10915
11189
11368
11462
11575
11731
11945
12087
12438
12811
13085
13398
13501
13580
13602
13620
13298
13071
12736
12349
11952
11477
10766
10692
10817
11047
11157
11194
11168
11226
11338
11442
11666
11875
11897
12053
12373
12611
12657
12618
12579
12537
12498
12460
12489
12555
12615
12654
12591
12384
12301
12271
12182
12134
12100
12106
12091
12081
12052
11898
11779
11819
11809
11897
12011
11998
11874
11757
11735
11798
11934
12192
12386
12480
12413
12243
11887
11726
11633
11610
11586
11320
11090
10915
10787
10775
10722
10508
10390
10527
10750
11006
11611
11938
12242
12527
12722
12927
13041
12998
12932
12932
12955
12959
12923
12822
12692
12573
12388
12299
12202
12090
11936
11731
11307
11212
11374
11570
11805
11944
11992
12041
12033
11967
11884
11943
11883
11852
11766
11676
11480
11537
11723
12040
12322
12550
12684
12643
12522
12399
12223
11836
11729
11682
11647
11630
11857
11913
11954
11956
11960
11880
11672
11754
11953
12138
12236
12272
12303
12313
12264
12182
12098
11858
11807
11712
11600
11532
11437
11544
11579
11658
11764
12113
12117
12056
11984
11883
11834
11933
12052
12118
12226
12255
12273
12243
12232
12204
12179
12152
12067
12076
12063
12031
12065
12079
12159
12217
12206
12201
12188
12098
12021
11932
11792
11718
11770
11737
11758
11816
11833
11711
11649
11546
11469
11403
11410
11701
11827
12034
12206
12301
12278
12280
12329
12302
12237
12115
11937
11748
11683
11637
11538
11377
11361
11427
11626
11897
12193
12251
12267
12242
12275
12304
12301
12252
12245
12298
12311
12317
12149
12003
11906
11917
11852
11758
11712
11551
11398
11321
11606
11762
11994
12240
12504
12448
12449
12425
12337
12150
12024
11781
11594
11552
11588
11663
11964
12055
12091
12120
12077
11943
11806
11751
11755
11791
11777
11814
11940
12080
12181
12299
12350
12367
12345
12360
12269
12145
11859
11666
11446
11340
11359
11655
11811
11815
11887
12056
12130
12329
12320
12337
12329
12311
12276
12242
12197
12183
12174
12145
11790
11696
11609
11653
11734
11908
11778
11716
11738
11807
11987
12111
12131
12129
12057
12014
11934
11966
12010
12091
12116
12013
12071
12034
11974
11920
11941
11949
11865
11802
11860
11924
12018
12055
12023
11996
11954
11953
11833
11910
11968
12081
12069
12047
12117
12216
12257
12287
12119
11981
11979
12001
11925
11781
11827
11884
11841
11789
11780
11797
11833
11928
12067
12216
12276
12467
12475
12381
12409
12405
11908
11612
11570
11623
11610
11746
11804
11808
11670
11625
11607
11337
11146
11166
11325
11458
11794
11950
11994
12054
12151
12230
12264
12353
12474
12413
12298
12117
12105
12068
11954
11959
11997
12035
12120
12235
12214
12136
12256
12225
12158
12147
12163
12100
12045
12095
12103
12009
11936
11915
11826
11735
11691
11737
11734
11764
11865
11958
11980
12029
12113
11992
11934
11995
12026
12008
12027
12082
12111
12114
12148
12114
11933
11771
11707
11694
11762
11925
12111
12192
12107
12093
12078
12015
12061
12071
11968
11603
11517
11474
11495
11587
11857
12008
12125
12300
12406
12130
11941
11798
11760
11618
11572
11855
11870
11858
11945
11985
12168
12102
12086
12078
12134
12244
12433
12384
12326
12235
12144
11747
11556
11464
11531
11686
11780
11763
11749
11750
11667
11629
11700
11762
11784
11740
11705
11766
11935
12072
12193
12291
12394
12436
12450
12369
12323
12303
12276
12272
12270
12266
12242
12129
11894
11813
11795
11807
11824
11848
11843
11845
11840
11858
11877
11906
11944
11947
11971
12024
12040
12008
11991
11988
11986
12029
12047
12146
12233
12187
12125
12008
11982
11997
11964
11961
11921
11894
11899
11882
11883
11853
11797
11816
11860
11855
11943
12046
12077
12092
12072
12098
12150
12144
12141
12182
12187
12205
12190
12136
12144
12093
12090
12047
11999
11983
11969
12031
11982
11872
11736
11584
11403
11246
11092
10962
10997
11147
11411
12032
12289
12458
12602
12640
12710
12796
12698
12573
12427
12233
11801
11668
11482
11310
11168
11181
11492
11670
11754
11843
11934
12165
12223
12173
12159
12111
12151
12144
12078
11965
11963
11961
11693
11625
11615
11661
11721
11944
12064
12157
12240
12263
12280
12126
12134
12149
12127
12114
12182
12125
12058
12059
12072
12052
12052
12060
12062
12135
12128
12101
12098
12087
12054
12014
12006
11986
11959
11926
11905
11941
11927
11846
11831
11825
11838
11866
11912
11921
11942
11956
11915
11978
11971
11999
12022
12145
12186
12190
12160
12103
12079
12111
12121
12080
12066
12111
12099
12020
11917
11902
11761
11667
11763
11759
11789
11757
11574
11371
11322
11502
11640
11772
11811
11867
11895
11975
12031
12091
12131
12117
12024
11990
12030
12069
12058
11972
11876
11887
11900
12025
12127
12164
12167
12184
12225
12193
12255
12323
12401
12419
12171
12109
12064
11970
11837
11750
11721
11795
11856
11918
12027
12004
11972
11827
11735
11652
11855
11952
12020
12066
12094
11998
11677
11554
11488
11550
11689
12085
12152
12130
12146
12181
12193
12132
12096
12063
12066
12109
12096
12079
12026
12007
12110
12037
12057
12177
12194
12176
12155
12069
11928
11810
11780
11728
11692
11767
11877
11922
11978
12057
11996
11874
11825
11817
11926
12131
12279
12330
12266
12249
12241
12217
12246
12217
12140
12064
12045
12097
12075
11826
11461
11034
11074
11158
11255
11387
11422
11625
11782
11962
12082
12178
12324
12322
12286
12196
12149
12183
12181
12145
12130
12063
12024
12065
12028
12032
12038
11979
12062
12172
12202
12202
12109
12018
11873
11840
11884
11948
11968
12021
12003
12008
11966
11882
11836
11833
11897
12011
12053
12060
12135
12051
11980
11929
11877
11884
11965
11935
11976
11998
11996
12024
12105
12112
12069
12101
12184
12088
11974
11936
11830
11738
11752
11834
11852
11907
12011
11995
11941
11926
12038
12086
12102
12139
12257
12259
12250
12301
12336
12272
12222
12198
12100
11877
11835
11682
11499
11367
11303
11246
11382
11565
11747
11847
11888
11908
11801
11800
11921
12085
12187
12260
12295
12249
12094
12019
12127
12223
12246
12333
12404
12394
12413
12292
12002
11575
11416
11503
11464
11368
11369
11517
11611
11813
11913
11978
12035
12164
12182
12214
12278
12360
12284
12224
12200
12191
12115
12055
12041
12020
12034
12044
12037
11830
11861
11943
11938
11958
12074
12084
12078
12106
12186
12246
12253
12276
12389
12416
12374
12307
12147
11967
11768
11505
11239
11140
11362
11460
11423
11332
11386
11447
11572
11789
11986
12230
12325
12396
12370
12309
12314
12416
12423
12476
12458
12288
11822
11709
11658
11722
11880
11969
12076
12076
12138
12226
12283
12145
12097
12058
11993
11975
11989
12035
12079
12013
11820
11486
11101
11002
10976
11091
11253
11756
11969
12146
12284
12375
12380
12345
12307
12259
12265
12348
12340
12297
12313
12317
12220
12129
12070
12023
11947
11840
11748
11905
11990
12037
12053
12122
12001
11779
11648
11546
11478
11488
11532
11563
11645
11797
11951
11954
11906
11910
11909
11955
11962
12004
12041
12087
12098
12130
12198
12188
12170
12171
12263
12290
12257
12239
12183
12155
12088
12103
12120
12146
12116
12127
12134
12088
12100
12166
12094
12017
11788
11804
11901
12054
12040
11901
11854
11726
11498
11129
10867
11011
11332
11632
11861
12008
12200
12260
12325
12351
12383
12367
12287
12153
12074
12036
11896
11802
11748
11695
11691
11647
11862
11982
12119
12230
12337
12462
12448
12475
12499
12523
12582
12673
12616
12471
12343
12159
11927
11840
11902
11945
11842
11675
11130
11017
11035
11028
11037
11226
11368
11313
11232
11283
11520
12015
12209
12366
12400
12339
12213
12168
12109
12117
12286
12496
12499
12427
12410
12488
12496
12618
12671
12617
12522
12544
12418
12277
12176
12077
11806
11372
10503
10243
10235
10425
10719
11265
11453
11665
11905
12084
12143
12278
12321
12272
12278
12298
12274
12370
12429
12432
12454
12392
12274
12222
12180
12172
12221
12336
12358
12358
12339
12294
12269
12201
12133
12015
11881
11833
11876
11917
11843
11727
11688
11547
11409
11323
11193
11056
11009
11295
11566
11753
11829
11835
11971
11994
12037
12095
12217
12321
12343
12360
12334
12307
12318
12277
12246
12250
12101
12046
12031
12008
12029
12041
12119
12188
12210
12281
12372
12381
12290
12170
12100
11995
11914
11926
11678
11458
11371
11334
11373
11411
11513
11607
11723
11769
11746
11651
11589
11570
11670
11851
11974
12187
12174
12252
12275
12213
12318
12441
12481
12457
12542
12576
12132
11973
12037
12094
12191
12498
12504
12434
12409
12423
12666
12968
13280
13422
13330
13090
12727
12411
11976
11589
11272
10956
10949
11128
11405
11467
11398
10315
9503
8742
8331
8153
8134
8387
8941
9679
10354
10851
11369
12549
12938
13210
13449
13622
13643
13598
13507
13398
13292
13206
13174
13095
12946
12927
12837
12726
12637
12565
12453
12414
12363
12242
12152
12123
12112
11988
11781
11821
11820
11809
11862
11909
11911
11849
11863
11935
11930
11973
12103
12142
12132
12149
12209
12171
12155
12102
12026
11938
11998
12099
12039
11853
11616
11462
11502
11588
11679
11680
11637
11931
11973
11907
11827
11793
11821
11744
11779
11821
11801
11772
11848
11873
11871
11864
11830
11743
11773
11898
11975
11993
11921
12037
12007
12023
12261
12372
12397
12422
12334
12285
12299
12365
12365
12415
12420
12439
12302
12122
12142
12161
12079
11923
11325
11074
10923
10846
10866
10895
11319
11560
11765
11870
11998
12173
12215
12294
12302
12346
12428
12584
12693
12783
12782
12744
12579
12397
12229
12169
12049
11946
12002
12054
11958
11728
11456
11104
10947
10762
10721
10710
10846
11005
11071
11139
11279
11610
12327
12721
13133
13385
13450
13387
13313
13161
12947
12842
12551
12493
12452
12350
12144
11872
11158
10739
10285
9993
9918
9976
10141
10423
11062
11285
11504
11787
12022
12406
12640
12821
12929
12942
12972
13267
13483
13637
13732
13713
13684
13620
13485
13327
13062
12863
12352
12085
11920
11819
11649
11152
10716
10170
9609
9151
8985
8984
9057
9085
9240
9621
10208
10800
11838
12362
12720
12924
13058
13286
13328
13343
13285
13257
13170
12816
12661
12539
12365
12260
11999
11815
11699
11673
11687
11716
11859
11936
11948
11994
12024
12099
12160
12182
12176
12195
12230
12218
12210
12200
12195
12285
12309
12365
12451
12514
12555
12567
12503
12455
12462
12425
12200
12100
12002
11898
11885
11862
11693
11558
11440
11314
11194
10926
10903
10933
10915
10833
10886
11115
11161
11191
11194
11241
11650
11883
12111
12323
12441
12641
13014
13188
13218
13195
13147
13130
12978
12897
12829
12742
12659
12585
12455
12201
11946
11675
10989
10540
10127
9865
9838
9963
10239
10607
11450
11831
12108
12250
12356
12814
12889
12869
12894
12833
12738
12696
12678
12622
12504
12337
12120
11966
11720
11552
11318
11094
10981
11066
11063
10996
10975
11248
11525
11869
12170
12399
12799
12920
12947
13001
13026
13042
12896
12735
12589
12491
12411
12261
12106
11891
11611
11264
10948
10589
10581
10655
10770
10934
11324
11697
12108
12521
12911
13331
13386
13447
13511
13520
13361
13037
12850
12669
12602
12557
12313
12106
11820
11425
11143
10779
10549
10276
9946
9781
9778
9831
9927
10113
10514
10919
11650
12103
12530
12760
12871
12938
12929
12823
12679
12545
12263
11431
11033
10770
10740
10821
11419
11751
12086
12425
12759
13122
13194
13236
13297
13322
13367
13633
13764
13848
13849
13746
13246
12921
12511
12200
11927
11625
11239
11117
11092
11204
11279
10939
10885
10864
10764
10740
10837
10942
11055
11217
11384
11618
11846
11921
12117
12280
12422
12669
12680
12663
12615
12512
12386
12328
12379
12364
12176
11992
11885
11851
11769
11705
11633
11590
11345
11342
11283
11218
11141
10753
10516
10361
10391
10474
10518
10522
10625
10829
11094
11506
12387
12681
13044
13413
13683
13952
14080
14143
14177
14142
14046
13650
13529
13464
13296
13061
12391
12041
11635
11296
11065
10802
10685
10622
10578
10506
10306
9851
9809
9924
10373
11077
11805
12252
12462
12859
13044
13150
13181
13209
13162
13129
13089
13077
13045
12960
12713
12679
12570
12434
12266
12080
12072
12218
12389
12442
12350
11836
11526
11301
10990
10592
10337
10265
10383
10791
11405
12372
12632
12858
13029
13129
13103
12726
12526
12178
11794
11509
11310
11308
11336
11337
11219
11043
10645
10353
10043
9760
9652
9837
10347
10949
12069
12487
12790
13037
13313
13393
13347
13322
13265
13176
13113
12898
12654
12377
12090
11726
11258
11201
11191
11192
11351
11679
12247
12480
12571
12704
12930
13439
13423
13445
13358
13182
12684
12430
12280
12114
12038
11993
12065
11865
11541
11265
11028
10375
10174
10066
10135
10285
10522
11102
11280
11363
11338
11417
11656
11807
11935
11915
11865
11924
12021
12215
12442
12544
12524
12403
12297
12187
11984
11841
11697
11787
12039
12304
12540
12755
12885
12850
12838
12799
12858
13003
12924
12860
12924
13039
13149
13493
13577
13467
13251
13005
12591
12277
11925
11585
11300
11178
11190
11172
11064
10733
10330
9576
9334
9016
8766
8647
8729
8921
9189
9340
9566
9967
10499
11145
11925
12660
13414
13546
13745
13914
14043
13995
13890
13872
13849
13805
13747
13507
13350
13213
13080
12934
12756
12348
12203
12028
11870
11691
11448
11364
11296
11228
11251
11227
11228
11235
11243
11449
11662
11907
11927
12075
12198
12355
12513
12482
12496
12536
12626
12689
12543
12434
12368
12300
12219
12055
11713
11170
10567
9965
9396
9027
8830
8857
9139
9662
10389
12225
12909
13478
13905
14311
14598
14392
14169
13979
13769
13487
12889
12646
12523
12399
12290
12222
12159
12050
11744
11361
10512
10110
9713
9352
9158
9216
9385
9745
10397
11225
11833
12638
12909
13037
13029
12980
12938
12892
12789
12642
12550
12422
12235
12174
12109
11958
11749
11562
11109
10975
10976
11042
11141
11546
11966
12483
12802
12904
12822
12859
12930
13059
13308
13546
13767
13781
13778
13751
13801
13724
13445
13076
12549
11928
11329
10208
10005
10047
10221
10471
10772
10623
10348
10036
9607
9076
8607
8417
8593
9090
9817
10544
11763
12226
12597
12866
13136
13466
13516
13566
13627
13633
13533
13507
13560
13666
13825
13935
13871
13838
13758
13696
13574
13467
13180
13013
12759
12478
12201
11366
10739
10061
9331
8656
8276
8095
8045
8131
8367
8737
9233
9751
10310
10856
11852
12287
12559
12796
13057
13381
13459
13444
13467
13496
13478
13446
13331
13197
13087
13014
13086
12995
12940
12845
12697
12606
12598
12468
12296
12119
11985
12053
12129
12039
11908
11834
11653
11515
11352
11250
11081
10835
10706
10665
10622
10586
10529
10222
10128
10053
10174
10531
11523
12054
12439
12798
13104
13244
13291
13426
13601
13674
13662
13526
13333
13103
12904
12706
12606
12767
12837
12803
12713
12574
12031
11721
11314
11178
11089
10870
10844
10930
10929
10910
10891
11149
11405
11795
12117
12272
12304
12139
11924
11810
11879
12014
12536
12728
12678
12509
12334
11987
11852
11659
11447
11333
11413
11488
11670
11807
11853
11869
11845
11716
11538
11376
11236
10984
11058
11263
11434
11562
11796
12153
12299
12387
12414
12354
12383
12405
12435
12331
12338
12334
12184
12118
12146
12158
12147
12176
12181
12252
12349
12445
12501
12425
12218
12007
11937
11943
12051
12184
12341
12548
12777
13053
13022
12805
12542
12326
12204
12025
11859
11654
11343
11034
10373
10123
9990
10001
10197
10538
11290
11437
11508
11569
11617
11719
12257
12593
12881
13111
13175
13032
12898
12717
12381
12072
11740
11481
11608
11823
11988
12011
12302
12372
12474
12581
12642
12562
12498
12330
12167
11997
11891
11701
11629
11563
11595
11591
11430
11340
11236
11139
11040
11032
11121
11212
11461
11757
12132
12780
12974
13147
13204
13098
12956
13065
13061
13031
12984
12985
12682
12477
12285
12146
12135
12089
11991
11866
11639
11341
11279
11361
11399
11515
11655
11850
12047
12144
12204
12228
12260
12335
12359
12319
12132
11835
11611
11098
10878
10780
10906
11309
11781
11868
11896
11918
11841
11712
11396
11234
11123
10996
10951
11072
11196
11287
11482
11833
12145
12242
12163
11928
11643
11411
11498
11583
11530
11453
11456
11863
12264
12595
12794
12969
13048
12846
12549
12272
12030
11843
11338
11167
11069
11065
11190
11489
12292
12623
12834
12933
13009
13109
13081
13108
13150
13142
13086
12943
12923
12859
12753
12608
12447
12411
12339
12369
12334
12278
12168
11976
11689
11406
11142
10668
10649
10752
11022
11192
11414
11535
11711
11837
11944
12016
11830
11722
11637
11535
11518
11689
11914
12172
12427
12748
12815
12573
12358
12126
11870
11645
11151
11087
11338
11697
12107
12541
12539
12525
12578
12803
13081
13262
13158
13034
12895
12743
12649
12722
12817
12792
12667
12493
12313
12011
11498
10882
10384
10000
9986
10082
10215
10427
10862
11641
11827
11795
11600
11296
11042
10636
10717
11054
11454
11672
11791
11998
12213
12478
12807
13365
13196
12847
12376
11960
11693
11209
10896
10928
11126
11473
12012
12148
12167
11943
11701
11430
11147
11297
11426
11422
11427
11403
11496
11597
11689
11734
11914
12523
12682
12781
12789
12835
12926
13108
13440
13824
14002
13836
13758
13674
13500
13304
13000
12480
12264
12040
11735
11352
10380
10091
9830
9661
9610
9788
10025
10315
10635
11440
11947
12495
13075
13338
13279
13231
13284
13236
13170
13134
12902
12764
12549
12322
12128
12075
11947
11816
11604
11476
11468
11432
11419
11501
11620
11723
11850
11996
12231
12397
12441
12457
12708
12811
12807
12640
12494
12199
12161
12146
12121
12212
12373
12408
12369
12334
12175
12171
12109
11905
11736
11444
11080
10781
11001
11255
11439
11492
11365
10838
10645
10693
10818
11034
11279
11360
11522
11822
12170
12416
12714
12879
13000
12905
12562
11507
10645
9876
9412
9149
9227
9498
9891
10252
10617
10953
11738
12123
12538
12787
12904
12448
12116
11832
11634
11467
11362
11954
12641
13350
14015
14611
15419
15497
15395
15109
14847
14478
13676
13269
12934
12625
12435
12335
12160
12046
11754
11394
10659
10104
9458
8877
8480
8313
8393
8527
8712
9158
9740
10343
10890
11566
12713
12987
13252
13517
13705
13802
13812
13757
13651
13585
13565
13400
13286
13178
13064
12962
12558
12270
11995
11754
11699
11806
12118
12133
12109
12081
12184
12451
12396
12252
12118
11866
11530
11026
10908
10850
10792
10717
10506
10509
10517
10477
10401
10354
10521
10821
11124
11455
11774
12551
12999
13347
13585
13673
13611
13360
12978
12607
12210
11741
10994
10850
10884
11024
11300
11899
12188
12434
12542
12397
12160
12177
12299
12393
12552
12791
13242
13468
13620
13634
13498
12943
12646
12354
12053
11799
11505
10612
10152
9742
9468
9276
9177
9112
9074
9206
9360
9595
10003
10579
11902
12529
13123
13499
13733
13931
14213
14184
14163
14204
14258
14074
13889
13732
13498
13228
13009
12713
12502
12268
12092
11860
11550
11483
11387
11307
11277
11166
10789
10549
10273
9999
9794
9691
9702
9683
9811
10143
11121
11713
12114
12280
12388
12410
12533
12593
12501
12404
12495
12792
12757
12656
12513
12458
12470
12451
12320
12101
11827
11488
11041
11069
11252
11556
11980
12780
12985
13015
12798
12595
12530
12635
12705
12808
12850
12849
13026
13136
13233
13195
13098
12910
12433
12094
11678
11346
11106
10933
10989
11017
10973
10925
10899
11017
11084
11078
11097
11062
10912
10826
10890
11074
11392
12219
12583
12988
13252
13195
13049
13225
13394
13598
13806
13999
14046
13752
13248
12673
12241
11903
11181
11018
10744
10412
10061
9470
9209
9028
8794
8771
8973
9330
9863
10503
11243
11898
12448
12927
13135
12916
12594
12334
12086
11724
11830
12072
12422
12755
12975
13515
13755
13883
13873
13801
13673
13639
13509
13350
13179
12605
12244
12036
11992
11953
11831
11061
10696
10541
10484
10438
10661
10931
11240
11426
11515
11586
11745
11890
11903
11843
11801
12091
12065
11910
11705
11643
11777
12133
12183
12368
12593
12748
12899
12988
13012
12901
12694
12174
12079
12048
12164
12277
12358
12389
12248
12029
11799
11495
11226
11188
11290
11405
11462
11530
11643
11629
11590
11574
11623
11702
11693
11615
11617
11804
12356
12489
12625
12921
13191
13236
12890
12747
12703
12774
12819
12529
12219
11858
11479
10957
10386
9646
9578
9487
9475
9456
9606
9946
10317
10602
10858
11281
11911
13142
13512
13783
13938
14031
14217
14259
14190
14010
13799
13308
13056
12726
12354
11972
11652
11259
11179
11125
11174
11197
11333
11338
11238
11112
11034
11011
11217
11430
11629
11817
12086
12426
12483
12621
12681
12649
12530
12478
12474
12419
12334
12151
11914
11840
11773
11714
11688
11549
11477
11413
11481
11570
11569
11587
11623
11684
11829
12074
12264
12029
11796
11676
11580
11412
11351
11413
11507
11559
11709
12177
12403
12504
12452
12328
12390
12429
12431
12452
12467
12548
12844
12934
12953
12873
12799
12565
12353
12091
12052
11958
11778
11460
11324
11118
10877
10525
10060
10259
10643
10937
11134
11768
12082
12260
12374
12373
12265
12312
12438
12569
12636
12730
12770
12722
12579
12491
12313
12134
11962
12074
12330
12489
12521
12559
12610
12689
12659
12576
12476
12371
12240
12059
11818
11683
11439
11317
11312
11453
11615
11721
11599
11413
11231
11125
11025
11406
11561
11628
11687
11742
11659
11595
11616
11755
11886
11965
11890
11772
11795
11967
12269
12685
12624
12439
12230
12017
11773
11881
12093
12249
12350
12548
12796
12769
12779
12751
12878
13023
12832
12618
12502
12355
12168
11912
11818
11696
11478
11253
10717
10379
9931
9461
9125
9034
9106
9344
9604
9823
10042
10466
10954
11972
12438
12809
13084
13356
13701
13733
13742
13736
13666
13594
13489
13332
13176
13117
13019
12778
12739
12709
12735
12738
12758
12765
12695
12517
12386
12285
12028
11959
11860
11711
11482
10927
10751
10641
10608
10683
10724
10455
10219
10232
10376
10711
11551
12009
12361
12527
12638
12639
12600
12506
12355
12164
12073
12086
12119
12290
12417
12462
12387
12353
12339
12296
12190
12127
12376
12436
12438
12427
12364
12307
12315
12313
12176
11959
11669
10848
10529
10446
10500
10715
11124
11242
11356
11529
11786
12084
12128
12215
12376
12531
12642
12612
12619
12667
12678
12630
12295
12092
11909
11698
11516
11388
11440
11580
11687
11781
11936
12331
12493
12597
12707
12820
12854
12758
12613
12412
12254
12127
11746
11650
11618
11605
11611
11556
11516
11553
11674
11712
11711
11546
11595
11673
11803
11909
12113
12075
12101
12245
12352
12368
12228
12104
11983
11939
11947
11922
12019
12129
12153
12127
11973
11897
11793
11679
11567
11439
11225
11337
11609
11996
12358
12694
12795
12810
12642
12461
12212
11914
11819
11769
11714
11739
11912
11965
11912
11727
11588
11450
11382
11424
11583
11789
11910
12123
12343
12562
12769
12831
12640
12532
12429
12324
12249
12096
11861
11943
12049
12112
12124
11728
11431
11165
10743
10193
9518
9886
10459
11082
11605
11941
12190
12299
12168
12165
12231
12384
12515
12830
12916
13005
13147
13227
13223
13098
12975
12781
12535
12212
11640
11510
11436
11485
11501
11630
11639
11598
11569
11541
11567
11632
11634
11675
11731
11660
11830
11952
12052
12179
12262
12279
12320
12288
12264
12245
12213
12137
12199
12274
12319
12403
12429
12386
12369
12367
12326
12202
12082
12064
12006
11858
11601
11395
11407
11468
11443
11441
11435
11529
11655
11810
12020
12278
12470
12439
12368
12300
12178
12090
12166
12231
12291
12281
12166
11818
11784
11783
11815
11791
11423
11334
11469
11710
12034
12186
12164
12021
11834
11646
11516
11506
11531
11703
11807
11870
11958
12054
12030
11994
11901
11766
11378
11337
11466
11636
11776
12015
12242
12485
12598
12530
12427
12406
12440
12507
12523
12494
12378
12328
12249
12220
12138
12044
12104
12130
12121
12074
11906
11332
11058
11026
11188
11378
11491
11656
11783
11770
11686
11609
11419
11439
11488
11513
11488
11689
11919
12193
12576
12819
12928
13089
13114
13074
12985
12802
12455
12364
12253
12058
11746
11540
11392
11341
11273
11157
11034
11247
11529
11831
12124
12316
12505
12539
12478
12388
12399
12394
12405
12376
12345
12304
12267
12028
11920
11853
11818
11822
11913
11992
11992
11946
11867
11779
11777
11770
11768
11604
11297
10994
11255
11600
11892
12135
12293
12361
12245
12166
12106
12051
11921
11857
11804
11774
11834
11895
11864
11913
12015
12068
12121
12158
12177
12173
12165
12111
12147
12344
12403
12367
12342
12372
12297
12219
12183
12076
11985
11768
11731
11785
11862
11981
12022
11707
11424
11295
11229
11240
11395
11544
11718
11904
12022
12051
12143
12137
12176
12142
12258
12308
12358
12354
12353
12274
12182
12139
12110
12071
11990
11862
11720
11725
11815
11991
12121
12294
12333
12266
12114
11925
11696
11537
11478
11437
11452
11498
11627
11671
11642
11542
11456
11434
11775
11944
12085
12244
12376
12466
12425
12306
12289
12183
11978
11966
11960
11967
11995
12006
11899
11911
12021
12113
12165
12314
12392
12346
12233
12181
12069
12104
12091
12107
12076
12077
12049
12045
11988
11935
11908
11797
11776
11782
11788
11801
11805
11842
11855
11902
11947
11922
11791
11759
11723
11716
11745
11845
12019
12058
12113
12175
12243
12127
12061
12088
12101
12169
12187
12030
11929
11855
11775
11689
11397
11232
11183
11209
11266
11645
11828
12053
12222
12318
12321
12225
12228
12256
12299
12312
12377
12393
12406
12321
12238
12156
12000
11996
11962
11817
11608
11376
11461
11572
11707
11849
11981
12052
12122
12186
12230
12252
12123
12081
12076
12074
12038
12084
12082
12029
11974
11915
11930
11905
11904
12003
12081
12117
12166
12168
12150
12116
12070
11920
11942
11883
11882
11898
11919
11954
11992
12012
12004
11933
11807
11740
11666
11630
11558
11511
11631
11767
11787
11836
11903
12113
12188
12197
12168
12239
12255
12236
12244
12193
12107
12105
12173
12180
12183
12146
12069
11884
11866
11843
11814
11747
11714
11808
11877
11900
12003
12075
12212
12219
12144
12072
12062
12103
12108
12182
12206
12228
12220
12188
12116
12011
11843
11620
11225
11174
11128
11188
11362
11517
12043
12247
12369
12348
12354
12304
12300
12288
12237
12163
12035
11702
11534
11412
11338
11266
11141
11242
11445
11735
12002
12262
12588
12666
12669
12628
12534
12228
12002
11806
11604
11545
11707
11800
11941
12036
12064
12057
12012
12012
12088
12132
12170
12143
12077
12085
12141
12157
12146
12097
12097
12082
12090
12078
11948
11953
11971
11979
11948
12023
11987
12019
11972
11930
11885
11911
11877
11955
12002
12015
12005
11981
11960
11983
11986
11935
11963
11958
11965
11942
11892
11808
11778
11813
11860
11850
11928
11947
11971
11981
11975
11991
12117
12128
12086
12162
12176
12181
12170
12198
12243
12268
12302
12276
12226
12182
12130
12023
11764
11767
11773
11676
11432
11200
11212
11412
11606
11666
11633
11523
11518
11557
11681
11786
11885
11888
11955
12043
12140
12224
12359
12415
12430
12429
12412
12248
12180
12174
12135
12048
12006
11975
11924
11871
11815
11773
11868
11931
11991
11958
11948
11994
12026
12008
11974
11972
12017
12048
12051
12075
12115
12133
12131
12060
12041
12008
12011
11969
11982
12000
12003
12000
11980
11935
11952
11990
11932
11914
11949
12010
11993
11990
11993
11990
11944
11948
11942
11960
11981
11981
11904
11885
11932
11927
11869
11932
12002
12031
12055
12021
11930
11963
12007
11994
12045
12101
12176
12100
12025
11937
11849
11826
11844
11884
11909
11883
11805
11807
11774
11881
12009
12084
12124
12237
12301
12325
12325
12270
12177
12089
11980
11858
11820
11752
11726
11636
11532
11487
11669
11718
11728
11756
11807
11891
11966
11981
11994
12061
12115
12176
12114
12095
12078
12083
12131
12189
12256
12290
12263
12213
12219
12164
12128
12095
12021
11902
11807
11623
11466
11413
11453
11573
11567
11572
11701
11873
12126
12291
12402
12449
12435
12326
12233
12103
11970
11896
11826
11836
11792
11659
11580
11558
11709
11803
11859
11927
12028
12077
12005
11985
11941
11886
11911
12014
12090
12142
12140
12143
12116
12079
12080
12143
12150
12123
12161
12187
12219
12206
12166
12092
12043
12009
12035
11997
11949
11841
11821
11831
11800
11815
11857
11836
11884
11849
11815
11781
11707
11724
11713
11745
11796
11931
12013
12101
12125
12151
12175
12147
12127
12110
12126
12070
12062
12093
12083
11996
11914
11898
11882
11908
11982
12072
12089
12044
12009
11964
11977
12048
11986
11934
11911
11898
11966
12080
12046
11958
11907
11869
11867
11972
11992
11965
11872
11771
11775
11840
11865
12009
12096
12107
12111
12072
12049
12027
11977
11791
11789
11765
11838
11892
11979
12071
12109
12122
12056
12057
12000
12021
11996
11975
11968
12139
12256
12287
12328
12275
12217
12202
12055
11946
11920
11929
11994
11928
11796
11634
11508
11417
11386
11369
11318
11305
11386
11628
11718
11768
11783
11786
11955
12049
12108
12148
12230
12315
12328
12315
12303
12288
12293
12219
12182
12254
12237
12248
12226
12200
12145
12107
12081
12039
12018
12054
12051
12036
12010
11872
11769
11714
11731
11753
11841
11899
11940
11968
11981
12017
12078
12078
12061
12066
12064
12096
12026
11948
11912
11963
11995
12004
12018
12024
12014
11969
11926
11891
11952
11973
12027
12069
12059
11975
11898
11825
11789
11779
11847
11914
11984
12032
11990
11846
11811
11841
11848
11834
11484
11322
11331
11477
11645
11855
12011
12100
12194
12202
12165
12180
12236
12274
12295
12236
12189
12162
12125
12183
12235
12277
12279
12186
12100
11997
12015
11938
11834
11758
11702
11705
11786
11681
11587
11545
11600
11669
11905
11972
11976
12028
12005
12049
12059
12069
12015
12026
12024
12040
12088
12121
12155
12171
12191
12197
12217
12230
12223
12187
12110
12083
12036
11935
11915
11931
11925
11893
11877
11849
11830
11904
11871
11756
11666
11600
11539
11460
11443
11485
11601
11771
11887
11965
12030
12124
12215
12160
12110
12093
12086
12123
12116
12150
12156
12154
12132
12121
12082
12111
12140
12122
12133
12115
12097
12067
12058
12029
12027
11969
11952
11967
12020
12059
12079
11968
11938
11871
11849
11875
11880
11869
11877
11856
11756
11610
11658
11769
11889
12010
12182
12177
12161
12042
11921
11902
12097
12220
12318
12388
12445
12487
12450
12328
12277
12161
11990
11991
11957
11891
11712
11546
11115
11022
10946
10825
10778
11041
11280
11518
11797
12014
12142
12188
12206
12188
12196
12226
12350
12363
12275
12244
12267
12299
12278
12292
12272
12252
12199
11871
11785
11791
11868
11969
12078
12107
12123
12132
12117
12074
12113
12096
12048
11987
11979
12003
12004
11942
11859
11889
11893
11939
12003
12058
12074
12101
12035
12001
12026
12010
12002
12012
11919
11844
11831
11864
11913
11953
11900
11821
11781
11763
11883
11929
11950
11899
11955
11913
11880
11894
11891
11869
11889
11945
11958
11961
11990
12016
12092
12131
12122
12075
12071
12111
12023
12016
12003
11997
11935
11932
11863
11884
11920
11874
11981
12100
12208
12338
12390
12430
12503
12462
12422
12417
12282
12130
12002
11955
11837
11575
11417
11342
11264
11088
10856
10626
10565
10861
11213
11446
11672
11967
12527
12629
12762
12884
12950
12831
12638
12416
12197
12059
12082
12166
12175
12142
11952
11906
11812
11832
12038
12225
12337
12566
12451
12019
11603
11509
11690
12115
12069
12068
12088
12047
11790
11623
11382
11070
10734
10493
10717
11079
11398
11648
11864
12233
12360
12448
12502
12522
12480
12470
12428
12359
12352
12284
12211
12182
12187
12230
12194
12246
12245
12188
12115
12092
12074
11950
12010
12069
12107
12077
12041
11972
11957
11945
11935
11920
11912
11915
11929
11924
11863
11861
11853
11842
11869
11904
11974
11954
11952
11943
11909
11952
11973
11990
12028
12001
12046
12040
12045
12044
12039
12078
12117
12185
12243
12287
12327
12296
11923
11788
11913
12182
12364
12141
11844
11671
11620
11606
11574
11163
11168
11369
11465
11502
11595
11599
11625
11592
11596
11655
11852
11992
12114
12215
12257
12193
12211
12174
12175
12213
12313
12367
12331
12294
12276
12295
12307
12317
12332
12333
12383
12398
12388
12294
12165
12057
11901
11513
11339
11280
11291
11318
11210
11279
11381
11498
11598
11824
12056
12127
12222
12350
12454
12608
12677
12737
12812
12815
12576
12323
12060
11873
11705
11573
11312
11236
11184
11112
11074
10986
11056
11166
11300
11460
11699
12106
12253
12352
12389
12427
12665
12858
12945
12936
12921
12896
12841
12786
12714
12668
12557
12250
12104
11949
11784
11598
11436
11168
10822
10535
10247
10222
10752
11048
11365
11619
11781
12146
12253
12322
12316
12444
12593
12716
12685
12716
12751
12730
12728
12672
12650
12588
12516
12478
12407
12441
12473
12300
11931
11181
10855
10507
10221
10099
10504
10820
11079
11312
11506
11651
11895
12029
12197
12342
12398
12429
12404
12366
12351
12331
12290
12238
12198
12227
12235
12230
12133
12166
12189
12186
12116
12023
11993
11973
11966
11953
11973
12014
12068
12080
12078
12080
12045
12018
11968
11960
11989
12009
12006
11906
11860
11822
11792
11752
11848
11947
12020
12052
11989
11918
11912
11918
11913
11918
12102
12116
12061
12064
12003
11997
12039
12040
12012
12014
12054
12102
12056
11990
11978
11976
11987
11995
12033
12011
12022
11970
12002
12073
12139
12198
12230
12289
12209
12051
11833
11535
11043
11024
11127
11360
11598
11792
12056
12142
12134
12153
12204
12395
12516
12618
12656
12632
12514
12192
12110
11981
11816
11632
11510
11555
11558
11484
11412
11316
11343
11394
11472
11571
11662
11761
11848
12007
12271
12661
13104
13046
12946
12808
12635
12497
12462
12357
12230
12159
12162
12271
12203
12057
11775
11453
10815
10498
10360
10253
10297
10463
11058
11406
11705
11783
11818
11971
12052
12095
12090
12097
12130
12186
12160
12143
12146
12230
12499
12606
12706
12725
12675
12594
12587
12593
12623
12661
12652
12572
12509
12434
12323
12186
12079
12036
11983
12000
12038
12016
11757
11561
11432
11326
11209
10964
10936
10964
11099
11248
11447
11701
11802
11905
11969
12020
12192
12263
12303
12364
12333
12400
12468
12555
12575
12605
12574
12505
12423
12363
12336
12273
12134
12204
12245
12121
11896
11704
11440
11367
11355
11306
11311
11538
11680
11763
11856
11873
11950
11960
11964
12018
12034
12010
11943
11905
11845
11823
11857
11982
11968
12005
11980
11994
12058
12327
12386
12497
12605
12826
12995
12954
12902
12829
12687
12456
12345
12277
12141
11959
11806
11334
11081
10892
10812
10768
10762
10771
10839
10912
10971
11060
11049
11085
11204
11420
11660
11946
12025
12080
12172
12236
12222
12279
12395
12577
12713
12817
12935
12987
13009
12993
12947
12817
12779
12771
12782
12817
12863
12736
12542
12273
11959
11604
10588
10128
9894
9776
9860
10115
10314
10565
11014
11236
11547
11820
12035
12296
12768
12877
13037
13164
13260
13482
13563
13552
13504
13445
13323
13048
12886
12709
12556
12455
12463
12505
12419
12102
11636
10597
10244
9890
9566
9253
9089
9003
8983
9083
9381
9789
10193
10559
10942
11712
11983
12155
12393
12610
12787
13100
13150
13173
13197
13207
13205
13193
13119
13130
13141
13062
13110
13121
13090
13018
12917
12569
12446
12326
12238
12091
11777
11603
11484
11456
11459
11518
11702
11701
11592
11411
11195
11063
11040
10985
11001
11090
11222
11362
11519
11736
11871
12048
12218
12372
12485
12532
12523
12585
12584
12554
12514
12515
12523
12651
12676
12684
12685
12664
12583
12537
12457
12307
12175
12112
12225
12304
12265
12132
12021
11370
10947
10607
10482
10496
10692
10731
10770
10835
10887
10960
11142
11314
11499
11710
11927
12405
12619
12858
12981
13095
13119
13157
13158
13152
13092
13060
12951
12843
12748
12634
12501
12411
12386
12220
12017
11689
11263
10349
10071
9971
9976
10072
10234
10482
11114
11411
11682
11893
12051
12220
12726
12934
13118
13237
13287
13264
13105
12920
12770
12676
12555
12427
12277
12067
11874
11544
11120
11045
10994
10793
10543
10137
9969
9839
9834
10038
10293
10658
11183
12505
13075
13468
13654
13698
13678
13501
13349
13226
13093
12924
12573
12417
12194
12023
11822
11630
11338
11291
11264
11235
11250
11111
11059
11029
11074
11231
11708
11895
12071
12225
12364
12560
13191
13369
13436
13494
13471
13297
13226
13190
13130
13027
12878
12500
12273
12104
11918
11759
11432
11170
10813
10498
10254
10267
10328
10242
10167
10099
10215
10832
11184
11410
11657
11965
12442
12646
12888
13110
13253
13268
12951
12764
12594
12497
12473
12380
12274
12255
12260
12331
12387
12435
12240
12006
11739
11657
12147
12343
12401
12443
12696
13159
13301
13393
13525
13684
13757
13568
13319
12994
12558
12129
11320
10885
10531
10259
9958
9598
9178
8676
8145
7617
7156
6740
6623
6831
7344
8135
9097
10198
12208
13136
13874
14371
14759
15513
15644
15544
15320
15082
14665
14451
14174
13869
13582
13373
12904
12705
12468
12129
11666
10819
10531
10325
10139
9928
9728
9566
9472
9517
9704
10066
11011
11428
11811
12179
12506
12776
13249
13389
13439
13352
13352
13303
13256
13199
13148
13058
12850
12764
12663
12626
12619
12575
12493
12530
12571
12691
12687
12408
12342
12232
12096
11981
11859
11632
11646
11688
11653
11636
11799
11681
11482
11279
11050
10605
10360
10051
9775
9600
9555
9577
9681
9861
10071
10380
11189
11552
11878
12177
12432
12674
12913
13063
13183
13309
13457
13573
13658
13639
13602
13628
13600
13470
13410
13356
13240
13068
12647
12477
12402
12360
12299
12169
11853
11425
10907
10459
10036
9348
9171
9279
9546
9887
10281
10793
11335
11612
11635
11512
11590
11785
12000
12193
12463
12585
12732
12799
12913
13098
13247
13257
13250
13264
13285
13367
13346
13259
13198
13176
13157
13151
12971
12866
12782
12697
12461
12335
12331
12286
12083
11164
10735
10348
10032
9708
9473
9365
9189
8979
8839
8842
8934
9004
9119
9328
9575
9986
10530
11521
11789
12019
12149
12296
12939
13645
14565
15325
15724
15670
15400
15156
14917
14614
14292
13542
13136
12794
12473
12151
11693
11543
11413
11203
10866
10512
9766
9348
8844
8301
7983
7989
8290
8954
9800
10580
11274
11803
12290
13004
13163
13247
13311
13319
13281
13132
13104
13194
13327
13354
13275
13133
13037
12968
12998
13072
13194
13238
13246
13303
13221
12865
12729
12527
12288
12052
11488
11319
11224
11190
11226
11273
11203
11086
10922
10697
10421
9900
9795
9859
10018
10352
10859
11406
11894
12336
12448
12485
12522
12557
12560
12663
12700
12674
12507
12395
12489
12506
12561
12673
12696
12689
12529
12529
12583
12684
12749
12679
12714
12784
12780
12650
12351
12219
12229
12214
12220
12152
11835
11562
11234
10928
10570
9993
9785
9614
9554
9779
10070
10334
10444
10495
10503
10846
11244
11749
12270
12720
13000
13249
13354
13395
13320
13213
13264
13291
13315
13279
13175
13013
12711
12665
12496
12318
12080
11464
11079
10744
10546
10379
10593
10932
11257
11561
11807
12021
12319
