12187
12187
12226
12236
12216
12170
12158
12146
12156
12182
12181
12104
12102
12074
12055
12048
12172
12172
12188
12174
12113
12105
12146
12161
12194
12190
12231
12234
12247
12239
12251
12256
12238
12205
12188
12188
12163
12158
12104
12070
12088
12082
12094
12205
12230
12210
12236
12201
12189
12156
12173
12179
12213
12193
12199
12162
12220
12246
12203
12206
12201
12110
12113
12189
12163
12096
12080
12115
12108
12125
12093
12162
12175
12187
12207
12171
12159
12191
12183
12205
12221
12237
12217
12201
12194
12188
12194
12150
12152
12181
12170
12121
12109
12054
12053
12076
12063
12149
12194
12211
12216
12210
12165
12173
12162
12141
12132
12211
12245
12209
12198
12204
12174
12160
12177
12186
12168
12075
12112
12175
12142
12104
12104
12103
12094
12140
12172
12184
12197
12194
12133
12189
12206
12178
12190
12302
12316
12288
12255
12209
12153
12147
12206
12133
12086
12136
12149
12112
12131
12173
12134
12051
12109
12139
12186
12196
12175
12157
12173
12146
12127
12143
12237
12258
12258
12261
12231
12206
12229
12201
12206
12157
12122
12150
12132
12082
12102
12110
12092
12130
12167
12150
12199
12200
12117
12092
12164
12180
12158
12278
12338
12275
12209
12195
12276
12181
12223
12183
12145
12153
12162
12142
12122
12093
12115
12093
12151
12186
12197
12175
12213
12149
12118
12165
12182
12155
12190
12253
12250
12207
12207
12236
12209
12180
12215
12188
12147
12168
12176
12116
12050
12096
12124
12076
12105
12133
12125
12099
12115
12076
12127
12156
12149
12162
12187
12224
12246
12232
12223
12240
12176
12182
12187
12200
12187
12176
12145
12089
12047
12097
12053
12078
12164
12184
12151
12153
12090
12064
12067
12158
12191
12216
12258
12272
12229
12218
12197
12186
12190
12192
12140
12087
12138
12186
12157
12094
12115
12109
12108
12160
12192
12199
12183
12132
12089
12099
12187
12205
12189
12146
12190
12235
12231
12219
12210
12175
12197
12188
12142
12154
12197
12175
12112
12055
12057
12083
12100
12151
12229
12216
12203
12179
12213
12228
12224
12153
12207
12191
12239
12202
12202
12162
12165
12161
12151
12093
12093
12124
12125
12130
12066
12052
12074
12134
12182
12199
12224
12202
12186
12159
12149
12195
12135
12172
12149
12175
12184
12210
12120
12151
12173
12154
12157
12144
12169
12175
12171
12101
12086
12119
12113
12126
12190
12241
12226
12235
12224
12183
12206
12238
12207
12217
12233
12246
12194
12188
12164
12170
12175
12147
12138
12179
12212
12179
12149
12136
12088
12088
12109
12078
12187
12198
12204
12157
12141
12191
12212
12203
12260
12253
12196
12230
12221
12188
12148
12187
12173
12122
12121
12144
12132
12138
12106
12083
12043
12123
12126
12138
12262
12244
12193
12137
12174
12150
12173
12240
12306
12293
12254
12287
12228
12172
12224
12185
12125
12152
12169
12125
12108
12109
12085
12074
12072
12124
12212
12282
12294
12250
12146
12119
12213
12180
12198
12282
12281
12241
12296
12267
12210
12151
12170
12074
12012
12063
12101
12030
12044
12068
12039
11947
11988
12067
12193
12238
12225
12192
12152
12149
12182
12172
12252
12331
12234
12193
12224
12211
12195
12186
12225
12172
12152
12190
12202
12122
12112
12167
12151
12128
12138
12194
12213
12218
12173
12077
12045
12124
12138
12100
12144
12172
12185
12205
12196
12144
12152
12143
12105
12090
12158
12166
12189
12137
12113
12136
12096
12107
12198
12214
12232
12246
12203
12108
12196
12233
12231
12237
12254
12250
12229
12214
12214
12198
12180
12136
12106
12072
12110
12089
12053
12036
12040
12034
12019
12105
12127
12188
12247
12221
12123
12166
12205
12201
12187
12230
12250
12211
12186
12221
12210
12231
12224
12145
12129
12158
12150
12167
12060
12034
12083
12068
12034
12097
12157
12197
12195
12177
12156
12166
12199
12225
12274
12299
12345
12320
12268
12209
12280
12285
12254
12241
12200
12183
12171
12109
12060
12110
12020
11893
11931
11976
11989
12017
11997
12053
12162
12213
12251
12265
12275
12293
12236
12261
12263
12212
12229
12203
12203
12229
12226
12222
12173
12115
12116
12120
12159
12147
12168
12185
12211
12229
12144
12113
12115
12115
12131
12276
12309
12284
12262
12257
12306
12314
12280
12248
12186
12172
12089
12048
11990
11934
11933
11938
11992
12045
12082
12141
12175
12064
12055
12066
12078
12154
12398
12410
12372
12371
12368
12340
12351
12349
12281
12182
12120
12056
12014
11958
11962
11955
11909
12013
12086
12101
12091
12172
12188
12162
12181
12256
12256
12263
12319
12308
12257
12247
12285
12246
12212
12245
12269
12226
12215
12225
12172
12095
12149
12107
12062
12104
12188
12203
12132
12170
12111
12104
12116
12138
12075
12113
12185
12176
12201
12240
12264
12286
12334
12380
12344
12308
12306
12316
12270
12237
12254
12224
12174
12132
12107
12037
11829
11674
11563
11554
11638
11713
11805
11932
12064
12158
12150
12309
12306
12296
12294
12314
12282
12269
12299
12300
12224
12196
12209
12187
12162
12240
12275
12271
12251
12236
12219
12247
12250
12254
12277
12308
12276
12197
12233
12212
12171
12132
12156
12119
12174
12181
12195
12122
12087
12158
12120
12090
12130
12163
12180
12175
12133
12121
12166
12259
12217
12249
12249
12235
12216
12197
12186
12202
12147
12138
12145
12143
12179
12207
12178
12058
12056
12012
11982
12043
12123
12135
12128
12099
12056
12058
12212
12233
12230
12214
12209
12163
12161
12212
12202
12168
12124
12141
12200
12218
12223
12248
12245
12162
12131
12164
12172
12223
12292
12267
12224
12199
12145
12104
12091
12089
12117
12120
12177
12208
12200
12150
12169
12141
12046
12095
12134
12130
12102
12098
12088
12169
12210
12221
12306
12383
12364
12339
12325
12296
12241
12268
12241
12202
12102
12065
12001
12007
12006
11993
11972
12001
12002
12044
12071
12085
12111
12080
12126
12116
12129
12173
12255
12264
12258
12244
12234
12288
12291
12325
12350
12341
12326
12343
12312
12303
12321
12297
12226
12257
12238
12251
12216
12158
11962
11866
11861
11880
11904
11882
11943
11978
12021
12032
12086
12136
12176
12227
12311
12335
12389
12402
12412
12386
12416
12427
12308
12299
12330
12368
12366
12206
12016
11994
11991
11975
12005
12083
12106
12150
12177
12123
12199
12155
12130
12170
12196
12187
12152
12166
12092
12042
12042
11983
11997
12062
12133
12125
12177
12148
12102
12063
12044
12129
12154
12234
12248
12215
12206
12255
12251
12206
12212
12289
12260
12219
12207
12181
12180
12241
12255
12253
12254
12298
12300
12247
12153
12100
12068
11979
11949
11992
11952
11941
11931
11962
12059
12131
12162
12146
12130
12215
12256
12273
12271
12261
12264
12235
12195
12159
12159
12203
12213
12217
12216
12279
12337
12368
12460
12474
12483
12454
12420
12362
12287
12170
12023
11901
11823
11815
11915
11991
12017
12005
11961
11939
11900
11777
11790
11931
12009
12034
12073
12120
12133
12170
12240
12323
12377
12364
12310
12356
12404
12447
12485
12641
12671
12739
12748
12704
12621
12587
12471
12342
12173
12001
11790
11598
11339
11238
11301
11369
11631
11743
11733
11712
11705
11818
11956
12126
12286
12360
12375
12441
12437
12424
12448
12485
12407
12386
12379
12342
12281
12344
12328
12291
12226
12211
12215
12161
12166
12204
12240
12256
12194
12145
12143
12229
12286
12256
12286
12300
12308
12283
12294
12201
12156
12096
12039
12020
12072
12111
12096
12063
12079
12093
12107
12157
12244
12302
12275
12189
12130
12107
12188
12286
12322
12319
12290
12239
12090
11984
12024
12063
12070
12023
11970
11945
12024
12033
12044
11984
12004
12086
12148
12253
12304
12329
12368
12328
12283
12304
12345
12351
12368
12409
12412
12290
12258
12252
12186
12127
11986
11840
11743
11916
12052
12161
12181
12162
12218
12319
12403
12545
12550
12470
12386
12262
12093
12056
12186
12337
12392
12387
12349
12264
12120
12000
11812
11644
11528
11465
11525
11733
11843
11879
11885
12076
12151
12237
12325
12421
12408
12344
12303
12272
12202
12190
12203
12149
12082
12099
12159
12430
12641
12768
12798
12834
12822
12714
12706
12678
12666
12616
12543
12479
12298
12152
12132
12089
11727
11456
11114
10830
10748
10748
10732
10802
10897
11039
11454
11766
12050
12331
12501
12582
12630
12622
12631
12636
12587
12463
12451
12432
12433
12446
12482
12496
12495
12458
12465
12460
12475
12447
12450
12434
12405
12292
12274
12243
12165
12153
12129
12138
12119
12125
12144
12194
12042
12069
12081
12030
12035
12068
12193
12194
12207
12229
12229
12346
12339
12315
12330
12317
12307
12300
12266
12279
12261
12269
12131
12000
11901
11818
11774
11839
11861
11847
11773
11749
11812
11889
11946
12021
12077
12086
12183
12245
12304
12420
12431
12388
12420
12342
12274
12289
12310
12326
12357
12421
12345
12148
11832
11757
11821
11867
11980
12154
12305
12377
12390
12374
12274
12144
12108
12047
12039
12059
12015
11945
11927
11927
11997
12077
12109
12172
12214
12224
12218
12272
12261
12308
12263
12294
12334
12345
12448
12618
12772
12808
12857
12772
12611
12506
12378
12225
12176
12250
12274
12342
12403
12507
12328
11852
11559
11359
11160
10738
10572
10402
10343
10425
10860
11169
11464
11778
11995
12532
12660
12702
12726
12765
12874
12830
12766
12780
12777
12752
12778
12756
12619
12505
12494
12456
12216
12190
12242
12229
12314
12375
12374
12358
12366
12344
12283
12292
12288
12297
12303
12379
12406
12289
12251
12258
12210
11992
12016
12044
11992
11958
12053
12125
12050
12113
12160
12139
12314
12447
12430
12415
12396
12309
12143
12091
12069
12000
11984
12163
12230
12227
12222
12204
11843
11771
11823
11904
11860
11816
11939
11981
12031
12053
12046
12065
12148
12174
12163
12196
12242
12250
12280
12348
12365
12301
12025
11845
11699
11579
11505
11423
11470
11620
11853
12162
12478
12958
13079
13129
13221
13243
13208
13172
13145
13067
13010
12972
12954
12915
12852
12694
12381
11534
11136
10788
10567
10480
10434
10403
10313
10273
10387
10579
11331
11745
12053
12322
12621
12811
12846
12919
12952
12900
12918
12813
12868
12912
12966
12984
12822
12684
12482
12302
12186
12019
11704
11519
11321
11176
11171
11449
11561
11702
11740
11849
12066
12175
12328
12420
12526
12609
12649
12622
12669
12724
12734
12721
12709
12668
12603
12478
12441
12362
12306
12231
12204
12253
12285
12375
12412
12363
12302
12261
12248
12279
12239
12180
12166
12103
12088
12094
12133
12188
12016
11933
11849
11842
11920
12062
12190
12131
12076
12013
11960
11906
11901
11973
12050
12121
12204
12466
12629
12785
12795
12733
12312
12041
11803
11630
11494
11475
11572
11633
11729
11831
11916
11974
11953
12049
12174
12393
13009
13224
13331
13266
13082
12922
12552
12437
12383
12319
12183
11880
11713
11729
11830
11978
12051
11877
11647
11359
11181
10983
10969
10989
11106
11307
11488
11955
12091
12156
12147
12093
12033
11958
11927
11804
11763
11812
12014
12145
12276
12492
12700
12843
13245
13423
13442
13426
13410
13221
13125
12993
12868
12669
12531
12528
12447
12350
12206
11955
11357
11191
11057
10883
10763
10811
11072
11339
11577
11848
12086
12378
12623
12945
13184
13281
13136
13041
12915
12825
12754
12548
12531
12520
12473
12463
12472
12375
12315
12339
12359
12332
12317
12225
12027
11726
11454
11339
11347
11386
11526
11712
11911
12288
12391
12418
12355
12340
12223
12060
12036
11920
11731
11438
10862
10631
10545
10615
10798
11341
11764
12200
12558
12859
13059
13323
13322
13345
13290
13243
13280
13274
13250
13198
13155
13085
12768
12573
12377
12136
11860
11155
10917
10635
10578
10747
11491
11788
12037
12165
12192
12225
12181
12089
12172
12397
12571
12770
12805
12823
12763
12627
12418
11839
11617
11466
11351
11217
11175
11256
11452
11712
12050
12314
12673
12778
12836
12835
12795
12843
12859
12940
13094
13151
12869
12664
12458
12236
12031
11951
11678
11557
11401
11349
11319
11239
11314
11469
11649
11793
11884
12112
12122
12106
12088
12103
12357
12390
12312
12305
12320
12386
12411
12472
12533
12584
12569
12489
12511
12580
12607
12551
12226
12035
11906
11848
11704
11582
11730
11883
12049
12236
12352
12363
12385
12354
12279
12302
12266
12098
12024
11897
11794
11691
11837
11920
11948
12004
12202
12781
12925
13069
13174
13323
13440
13652
13580
13518
13507
13346
13111
13064
12953
12801
12525
12191
11366
10931
10465
9989
9511
9137
8901
8814
8875
9136
9586
9987
10484
11432
11635
11554
11472
11497
11751
12464
12842
13100
13277
13489
13835
13909
13908
13934
13862
13721
13669
13458
13238
12954
12669
12194
12029
12006
12037
11989
11528
11433
11300
11100
11038
11137
11249
11365
11617
11912
12149
12750
12966
13098
13285
13442
13463
13351
13371
13287
13160
13073
12833
12666
12621
12742
12932
13114
13016
12903
12693
12435
12135
11445
11076
10734
10446
10213
9909
9963
10034
10131
10351
10592
10803
11192
11431
11495
11500
11623
11796
12082
12261
12449
12646
12808
12950
13094
13141
13260
13423
13523
13624
13643
13640
13540
13499
13394
13352
13403
13432
13407
13257
12743
12560
12414
12208
11947
11342
11093
10952
10851
10672
10213
10185
10212
10193
10211
10258
10584
10829
11177
11497
11832
12598
12930
13148
13387
13520
13579
13539
13467
13336
13103
12914
12726
12755
12814
12834
12765
12433
12350
12236
12091
11924
11848
11718
11689
11715
11679
11606
11418
11342
11311
11380
11466
11599
12003
12223
12439
12726
13071
13333
13324
13362
13390
13351
13274
13116
13148
13141
13171
13201
13350
13338
13140
12752
12271
11513
11177
10914
10661
10417
10201
10057
10015
9957
10017
10186
10192
9929
9837
9844
9898
10046
10225
10398
10785
11278
12202
12731
13274
13849
14289
14553
14968
15127
15168
15145
15039
14555
14257
14063
13857
13706
13296
13083
12795
12484
12241
12074
11730
11425
10994
10505
10073
9261
9117
9128
9218
9362
9634
9902
10126
10348
10713
11114
11575
12662
13121
13397
13525
13586
13667
13686
13682
13803
13884
13863
13950
13928
13779
13483
13210
12690
12386
12129
12001
11942
11947
11962
11939
11998
12104
12143
11882
11616
11455
11339
11301
11267
11434
11482
11477
11517
11689
12245
12458
12696
12731
12754
12831
12777
12689
12590
12525
12368
12094
11976
11871
11833
11907
12128
12153
12127
12076
11933
11734
11498
11453
11501
11721
12023
12620
13091
13646
13987
14056
14006
13910
13842
13783
13650
13460
12920
12525
12186
11875
11455
10631
10471
10394
10337
10134
9932
9780
9689
9618
9670
9835
10071
10342
10641
10940
11178
11267
11426
11649
12092
12598
12987
13479
13716
13859
13955
13907
13636
13576
13538
13482
13315
13102
12816
12669
12652
12825
13070
13193
13046
12932
12847
12819
12767
12618
12514
12458
12474
12503
12348
12214
11990
11648
11274
10902
10088
9834
9764
9785
9955
10181
10475
10857
11181
11604
11707
11742
11810
12024
12255
12326
12362
12539
13015
13669
13797
13793
13684
13532
13414
13135
12997
13018
12976
12873
12792
12652
12487
12335
12169
11996
11832
11814
11767
11760
11831
11739
11638
11530
11433
11385
11352
11558
11800
11879
11915
12061
12069
11939
11856
11878
11951
12268
12435
12558
12711
12830
12877
12802
12832
12868
12981
13149
13371
13536
13657
13680
13603
13217
12348
12037
11762
11446
11252
10887
10772
10768
10902
11165
11862
11986
11817
11624
11572
11492
11038
10857
10822
10747
10523
10288
10366
10521
10739
11155
11645
11901
12019
12252
12404
12521
13010
13173
13349
13626
14055
14939
15197
15342
15395
15416
15397
14962
14531
13921
13235
12650
11655
11036
10358
9832
9535
9495
9613
9770
9844
9742
9648
9450
9310
9345
9440
9693
10150
10749
12059
12462
12734
13020
13312
13822
14020
14202
14404
14530
14214
13887
13639
13472
13256
12826
12115
11901
11772
11597
11539
11470
11576
11789
11913
12014
12107
11962
11809
11629
11463
11358
11349
11466
11617
11647
11586
11630
11754
11776
11707
11645
11678
11929
12158
12353
12466
12462
12707
12973
13230
13436
13592
13807
14055
14020
13820
13417
13023
12401
12176
11985
11912
11868
11823
11931
12081
12167
12262
12421
12304
12108
11930
11714
11437
10992
10664
10383
10290
10362
10600
11434
11866
12159
12261
12209
12107
12174
12290
12400
12456
12457
12030
11972
12047
12207
12340
12430
12589
12758
12915
13086
13211
12818
12596
12380
12075
11771
11564
11548
11688
11933
12106
12234
12266
12395
12669
12940
13133
12934
12738
12565
12410
12325
12130
11853
11516
11296
11189
11201
11595
11691
11699
11611
11488
11464
11481
11482
11535
11660
11960
12169
12294
12320
12306
12413
12846
12902
12932
13022
13111
13130
13017
12884
12801
12720
12604
12568
12605
12594
12500
12394
12284
12498
12703
12777
12819
12505
12171
11893
11790
11814
11893
11929
11849
11748
11609
11405
10928
10679
10446
10223
10100
10166
10742
11099
11357
11651
11911
12470
12811
13124
13335
13465
13621
13437
13240
13152
13101
13051
12877
12711
12501
12310
12223
12409
12320
12064
11906
11957
12183
12659
12714
12734
12764
12656
12236
12058
11895
11805
11745
11730
11757
11844
11975
11975
11877
11659
11509
11367
11247
11160
11074
11215
11360
11791
12365
12853
13605
13819
13889
13827
13646
12896
12482
12181
12012
11976
12027
11981
12044
11997
11923
11820
11412
11046
10729
10581
10399
10240
10275
10400
10685
10986
11260
12084
12596
13027
13277
13364
13323
13193
13111
13188
13441
13599
13459
13313
13148
12866
12576
12231
12050
11949
11937
12035
12093
12074
12235
12340
12632
12844
12744
12613
12512
12340
12150
11900
11834
11859
11814
11703
11560
11307
11175
11112
11045
10961
11079
11206
11272
11331
11439
11649
12258
12578
12776
12858
12962
13096
13090
13124
13146
13166
13107
12828
12798
12816
12855
12936
13090
12966
12654
12272
11855
11204
11177
11184
11143
11091
11091
11131
11173
11189
11252
11393
12077
12403
12669
12858
12941
12954
12802
12726
12653
12643
12778
13205
13220
13023
12739
12460
12006
11785
11550
11351
11335
11451
11894
12412
13155
13726
13941
13772
13552
13277
12880
12398
11952
11379
11219
11140
11152
11215
10985
10689
10273
9819
9308
8974
8804
8820
9258
9840
10516
11171
12085
12391
12651
12904
13158
13543
13749
13791
13749
13725
13773
13853
13722
13620
13564
13438
12836
12536
12258
12045
11874
11733
11645
11966
12462
12934
13264
13902
14147
14229
14004
13489
12562
12170
11762
11445
11316
11297
11386
11261
11075
10976
10802
9983
9505
9211
9155
9254
9598
10269
10995
11703
12369
13065
13837
13833
13815
13817
13769
13606
13228
13060
12931
12980
13116
12876
12628
12372
12022
11663
11400
11418
11470
11634
11799
11982
12118
12287
12421
12478
12484
12411
12413
12516
12692
12874
12972
12791
12672
12532
12405
12360
12386
12492
12573
12560
12386
11731
11278
10853
10492
10212
10037
10053
10265
10765
11358
11867
12299
12255
12272
12350
12490
12619
12903
13187
13472
13584
13508
13345
13227
13051
12806
12571
12331
12072
11980
11887
11799
11664
11629
11674
11744
11809
11917
11981
11815
11605
11484
11398
11330
11562
11725
11892
11981
12106
12358
12476
12646
12839
13004
13245
13830
13933
13891
13798
13720
13569
13540
13389
13162
12914
12453
12101
11631
11243
10952
10711
10181
9873
9683
9487
9484
9735
10082
10346
10532
10741
10684
10665
10800
11197
11734
12709
13115
13478
13684
13749
13745
13684
13716
13751
13675
13629
13782
13656
13277
12754
12302
11587
11480
11546
11669
11803
12014
12159
12065
12020
12081
12105
12184
12265
12298
12310
12380
12467
12538
12573
12577
12665
12898
13036
12912
12728
12442
12062
11696
11338
11315
11367
11403
11401
11189
11011
10811
10620
10351
10187
10437
10802
11230
11674
12107
12899
13178
13394
13509
13523
13501
13452
13387
13356
13278
13296
13290
13246
13161
12898
12559
12052
11749
11631
11655
11776
12400
12677
12720
12669
12576
12546
12585
12500
12455
12399
12311
11986
11836
11610
11263
10909
10644
10050
9638
9432
9461
9603
9934
10351
10793
11202
11569
12288
12528
12708
13009
13357
13705
13714
13648
13668
13647
13607
13539
13519
13532
13571
13546
13204
12931
12648
12353
12122
11789
11635
11606
11747
11889
11938
12105
12219
12250
12200
12071
12029
11907
11627
11431
11317
11249
11271
11365
11477
11513
11551
11315
11089
11057
11184
11351
11854
12168
12578
13025
13312
13516
13725
13599
13432
13301
13131
12646
12451
12348
12293
12188
11976
11616
11488
11475
11564
11732
12418
12622
12685
12631
12458
12263
12219
12185
12069
11864
11679
11368
11470
11518
11426
11483
11543
11460
11339
11298
11264
11351
11792
12025
12245
12456
12512
12322
12120
11976
11912
11918
11949
12631
13081
13418
13526
13483
13435
13510
13577
13584
13547
13342
13228
13141
12929
12470
11914
10914
10597
10453
10588
10857
11654
12196
12602
12885
13037
12948
12564
12314
12063
11770
11374
10818
10701
10548
10507
10660
11596
11907
12052
12124
12238
12258
12265
12544
12894
13182
13464
13728
13658
13483
13286
13039
12781
12661
12719
12795
12692
12317
11454
11115
10891
10734
10778
10952
10973
10980
10966
11011
11146
11700
12005
12151
12248
12396
12715
12760
12762
12700
12646
12532
12396
12451
12442
12369
12324
12344
12351
12336
12349
12467
12703
12832
12777
12742
12706
12651
12458
12322
12226
12081
11912
11821
11869
11750
11542
11482
11550
11868
12244
12722
12908
12876
12607
12481
12291
12103
12095
12234
12362
12251
12159
12109
12144
12070
12062
12205
12278
12183
12003
12133
12251
12330
12419
12375
11393
10795
10399
10350
10557
11640
12096
12368
12516
12524
12432
12254
12356
12410
12364
12322
12506
12666
12870
13164
13454
13567
13554
13432
13150
12656
12297
12076
11978
11944
11963
11942
11836
11680
11396
11136
10875
10538
10159
10204
10288
10437
10826
12105
12651
12982
13202
13226
13034
12412
12219
12072
11959
11895
12041
12189
12277
12391
12497
12459
12415
12359
12409
12640
12959
13250
13335
13475
13588
13634
13748
13589
13390
13215
13024
12732
12038
11632
11157
10915
10853
10683
10524
10327
10064
9844
9794
9913
10181
10905
11368
11833
12238
12531
12706
12220
11930
11789
11812
12020
12954
13307
13436
13460
13468
13423
13420
13467
13439
13321
13083
12705
12693
12656
12627
12649
12418
12225
11974
11688
11518
11611
12255
12364
12306
12155
12053
12020
11977
11789
11557
11496
11508
11843
12061
12257
12463
12513
12661
12917
13094
13161
13121
12751
12675
12673
12576
12405
12156
11739
11417
10949
10586
10384
10059
9855
9844
10010
10393
10865
11416
12001
12665
12763
12783
12784
12779
12794
12877
13006
13154
13209
13108
13009
12848
12732
12619
12486
12219
12231
12385
12617
12871
12924
12721
12451
12107
11723
11414
10999
10938
11060
11239
11470
11938
12139
12221
12195
12153
12385
12580
12685
12740
12702
12590
12309
12291
12419
12468
12480
12454
12312
12092
11933
11900
11926
12168
12360
12527
12682
12722
12536
12488
12347
12259
12223
12159
12107
11989
11890
11771
11628
11148
11020
10896
10821
10844
11310
11537
11793
12075
12339
12555
12829
12877
12894
12931
12955
12885
12849
12715
12526
12296
12078
11910
11992
12070
12078
12088
12159
12176
12180
12145
12148
12257
12309
12353
12383
12405
12555
12814
12803
12691
12576
12496
12338
12359
12466
12566
12538
12327
11805
11625
11405
11137
10819
10553
10713
10983
11344
11706
12118
12328
12508
12628
12712
12831
12937
12868
12830
12774
12745
12620
12533
12418
12345
12306
12249
12114
12159
12218
12277
12380
12570
12647
12596
12591
12596
12455
12153
12030
11966
11883
11852
12021
12170
12187
11983
11650
11069
10913
10809
10868
11023
11061
11042
11249
11580
11895
12099
12409
12610
12839
13022
13127
13120
12948
12890
12862
12781
12723
12697
12661
12591
12543
12517
12405
12372
12397
12441
12391
12330
12034
11786
11637
11634
11724
11715
11682
11757
11823
11871
11971
12162
12099
12082
12138
12190
12336
12434
12409
12384
12310
12331
12375
12376
12447
12466
12411
12435
12360
12328
12299
12288
12152
12038
11918
11744
11538
11583
11798
11760
11810
11908
11964
12081
12265
12416
12402
12358
12340
12306
12251
12324
12400
12351
11991
11784
11723
11761
11883
12022
12039
12200
12365
12466
12457
12229
12145
12118
12081
11934
11768
11825
11906
11918
11804
11643
11598
11708
11855
12074
12312
12598
12653
12631
12605
12555
12670
12673
12631
12534
12418
12235
11956
11954
12043
12191
12259
12219
12272
12310
12377
12390
12369
12332
12313
12174
12158
12158
12017
11876
11789
11865
12071
12249
12543
12467
12340
12204
12029
11608
11390
11300
11291
11370
11626
11743
11892
12058
12263
12368
12385
12381
12410
12436
12490
12615
12618
12600
12515
12500
12496
12531
12491
12493
12490
12441
12407
12411
12351
12226
12100
11661
11546
11571
11641
11703
11715
11807
11944
12067
12120
12147
12255
12188
12109
12034
12052
12176
12337
12420
12462
12478
12500
12421
12413
12362
12337
12365
12363
12286
12282
12233
12170
12123
12091
12117
12088
12052
11972
12044
12096
12060
11980
11932
12012
12167
12088
12053
12130
12196
12188
12188
12196
12210
12246
12219
12011
11969
12042
12087
12083
12152
12244
12291
12288
12305
12432
12462
12518
12464
12230
11967
11935
12038
12087
12087
12083
12105
12080
11998
11979
11922
11877
11868
11885
11957
12004
12036
12146
12198
12229
12202
12308
12421
12600
12588
12583
12466
12261
12099
12106
12138
12102
12073
11929
11933
11958
11964
11932
11972
12243
12288
12314
12296
12235
12111
12075
12060
12077
12064
12113
12212
12285
12366
12354
12255
12183
12212
12214
12155
12161
12217
12291
12343
12325
12404
12466
12443
12356
12296
12290
12330
12312
12193
12159
12140
12082
12029
11968
11888
11842
11800
11774
11601
11619
11774
11948
12091
12300
12323
12317
12298
12268
12187
12260
12285
12251
12225
12240
12200
12115
12074
12132
12106
12139
12202
12221
12237
12295
12349
12319
12317
12361
12315
12279
12355
12426
12365
12282
12223
12133
12073
11976
11861
11781
11792
11778
11687
11714
11860
12035
12181
12278
12299
12279
12276
12277
12182
12230
12334
12362
12373
12364
12436
12401
12351
12364
12326
12035
11921
11934
11903
11867
11928
12049
12055
12053
12189
12222
12181
12215
12283
12276
12258
12254
12186
12126
12125
12158
12140
12250
12310
12284
12218
12195
12277
12233
12219
12224
12212
12195
12192
12237
12174
12150
12151
12151
12142
12173
12207
12213
12232
12213
12165
12222
12265
12280
12310
12306
12321
12243
12143
11738
11741
11784
11874
11951
11982
12071
12080
12081
12097
12050
12004
12019
12133
12268
12360
12477
12409
12297
12199
12160
12154
11900
11827
11826
11890
12010
12338
12515
12576
12569
12561
12587
12505
12503
12508
12435
12436
12355
12325
12286
12241
12192
12094
11622
11359
11002
10689
10665
11444
11826
12067
12161
12275
12433
12478
12548
12568
12523
12489
12475
12460
12435
12342
12313
12333
12271
12269
12335
12343
12313
12278
12241
12222
12218
12256
12258
12240
12276
12332
12282
12262
12238
12215
12183
12175
12146
12107
12146
12157
12130
12010
12010
12008
12007
12034
12072
12103
12139
12135
12134
12143
12179
12205
12215
12256
12258
12327
12214
12178
12134
12144
12181
12173
12184
12184
12195
12172
12129
12118
12090
12111
12141
12244
12324
12333
12289
12129
12020
12016
12102
12102
12121
12042
11930
11864
11891
11912
11896
11973
12040
12092
12170
12226
12296
12266
12304
12317
12343
12377
12405
12400
12225
12072
11938
11874
11951
12061
12135
12219
12282
12319
12231
12287
12283
12254
12262
12237
12104
12116
12160
12182
12219
12207
12219
12211
12157
12168
12226
12264
12259
12246
12197
12141
12216
12211
12159
12170
12171
12118
12110
12143
12112
12149
12173
12015
11973
12032
12129
12195
12193
11993
12005
12023
12003
12008
12009
12078
12170
12141
12048
11880
11911
11963
12059
12131
12232
12313
12364
12386
12365
12341
12282
12253
12277
12306
12357
12387
12251
12246
12154
12106
12164
12323
12363
12384
12360
12253
12246
12322
12353
12399
12378
12346
12237
12210
12238
12216
12239
12208
12042
11844
11680
11580
11492
11488
11573
11581
11635
11760
12116
12210
12346
12427
12433
12423
12476
12523
12545
12559
12537
12444
12376
12384
12369
12336
12302
12263
12164
12093
12044
12007
11927
11868
11915
11918
11877
11980
12007
12033
12099
12083
12103
12124
12168
12190
12204
12266
12281
12274
12275
12293
12319
12354
12321
12296
12327
12345
12337
12222
12210
12140
12002
11818
11780
11844
11941
12047
12086
12070
12192
12238
12245
12244
12296
12312
12322
12357
12279
12223
12231
12272
12228
12174
12186
12211
12218
12160
12174
12156
12062
12086
12111
12060
12058
12136
12124
12079
12165
12181
12172
12254
12328
12275
12268
12288
12323
12303
12336
12355
12357
12381
12347
12321
12216
12077
12064
12082
12206
12265
12296
12211
12083
12028
11998
12037
12090
12108
11994
11715
11665
11614
11553
11456
11439
11527
11657
11756
11850
11988
12402
12535
12531
12607
12671
12638
12620
12652
12605
12518
12425
12202
12181
12233
12312
12313
12231
12186
12197
12189
12143
12098
12161
12168
12228
12268
12334
12341
12361
12363
12193
11994
11813
11611
11603
11608
11715
11814
11896
11916
12042
12121
12193
12347
12347
12397
12465
12474
12480
12458
12455
12394
12283
12239
12303
12269
12250
12286
12271
12237
12339
12323
12328
12337
12358
12196
12101
12028
12083
12145
12124
12081
11930
11768
11721
11756
11958
11987
12018
12062
12081
12278
12282
12265
12168
12152
12164
12138
12216
12269
12325
12308
12287
12244
12304
12349
12339
12360
12291
12236
12310
12438
12506
12446
12385
12296
12181
12112
11942
11970
12042
12076
12015
11990
11787
11733
11827
11886
12005
12183
12091
11979
11953
11948
11950
11957
11968
11950
12006
12058
12219
12329
12374
12379
12387
12357
12416
12552
12641
12582
12589
12565
12619
12599
12586
12577
12521
12433
12361
12326
12303
12259
12166
12039
11898
11752
11605
11132
10880
10813
10866
10984
11184
11441
11726
11965
12173
12283
12567
12555
12517
12575
12655
12731
12771
12754
12748
12750
12824
12853
12839
12805
12646
12526
12259
12144
12163
12225
12286
12348
12227
12135
12083
12005
11836
11597
11492
11433
11434
11506
11706
11814
11849
11917
12064
12117
12118
12074
12009
11899
11846
11820
11828
11887
11998
12068
12160
12380
12476
12526
12539
12542
12572
12515
12499
12490
12452
12386
12314
12264
12245
12260
12319
12452
12419
12484
12558
12560
12270
12171
12132
12026
11950
11918
12028
12111
12098
12083
12028
11840
11862
11807
11825
11849
11856
11884
11889
11909
11980
12085
12406
12646
12837
12893
12901
12899
12877
12858
12869
12830
12726
12360
12230
12177
12121
12091
11961
11789
11568
11274
10956
10786
10661
10686
10781
10896
11160
11716
11990
12216
12406
12519
12696
12716
12740
12709
12764
12837
12855
12730
12670
12638
12607
12472
12436
12369
12359
12339
12443
12650
12733
12692
12491
12299
12144
12017
11846
11736
11677
11673
11831
12066
12293
12384
12417
12356
12230
12097
12025
12027
11965
11909
11956
11969
11938
11928
11999
11992
11980
11996
11899
11732
11645
11589
11641
11780
11914
12120
12269
12495
12667
12782
12777
12725
12709
12698
12644
12396
12158
11876
11618
11413
11333
11546
11674
11749
11830
11826
12133
12185
12212
12258
12356
12420
12291
12320
12357
12386
12401
12430
12397
12346
12438
12543
12533
12523
12613
12712
12705
12720
12763
12682
12616
12633
12637
12610
12640
12698
12646
12530
12330
11681
11320
11085
10937
10861
10711
10769
10917
11084
11258
11413
11887
11982
12222
12436
12560
12849
12978
13024
13006
12973
12843
12805
12757
12696
12628
12599
12509
12398
12191
12013
11908
11928
11932
11886
11887
11894
11871
11596
11478
11515
11648
11885
12209
12307
12433
12531
12618
12589
12562
12504
12418
12361
12326
12479
12441
12302
12147
12063
12190
12271
12254
12145
12014
11948
11915
11927
11922
11958
12026
12143
12225
12204
12057
11851
11581
10735
10386
10192
10203
10401
11224
11561
11849
12136
12530
13039
13186
13257
13259
13203
13152
13058
13051
12954
12818
12716
12429
12354
12341
12399
12417
12396
12329
12402
12476
12467
12451
12372
12339
12422
12457
12495
12549
12573
12550
12489
12391
12285
12095
12032
11927
11867
11731
11542
11572
11616
11605
11599
11515
11379
11528
11771
12089
12477
13025
13106
13105
13026
12834
12645
12381
12246
12169
12140
12166
12427
12655
12698
12515
12218
11290
10751
10299
10092
10160
10371
11054
11456
11865
12192
12400
12522
12487
12382
12309
12267
12242
12198
12130
12079
12042
12040
12367
12547
12657
12707
12783
13177
13304
13379
13455
13432
13261
13044
13065
13206
13402
13585
13530
13300
12865
12428
11959
11465
10474
10033
9803
9815
9972
10236
10456
10647
11049
11089
11096
11030
10948
10867
11111
11446
11717
12003
12327
12741
12979
13192
13282
13321
13342
13319
13303
13277
13243
13006
12833
12646
12484
12400
12429
12494
12452
12423
12473
12454
12347
12315
12308
12317
12338
12310
12158
12102
12035
11965
11942
11938
11954
11918
11839
11779
11790
11931
11991
12038
12155
12320
12806
13016
13038
13054
13100
13023
12998
12994
12953
12898
12771
12462
12347
12164
11925
11736
11347
11073
10959
10783
10548
10230
9898
9987
10050
10129
10266
10531
10947
11965
12411
12876
13208
13412
13702
13776
13787
13925
14166
14328
14530
14650
14617
14410
14217
13511
13120
12690
12233
11797
11520
11374
11314
11160
11002
10864
10139
9589
9124
8678
8228
7890
7882
8160
8753
9420
10196
10990
11758
12432
13346
13535
13707
13691
13549
13237
13169
13148
13154
13165
13121
12977
12965
13140
13336
13452
13374
13363
13333
13377
13429
13832
13910
13804
13580
13318
13034
12635
12381
12137
11978
11733
11290
11206
11155
11165
11175
11125
10677
10385
10186
10090
9976
9855
9882
10147
10967
11433
11888
12284
12689
13260
13333
13326
13285
13286
13173
13185
13155
13144
13158
13131
13183
13131
13078
12973
12872
12730
12707
12691
12684
12607
12528
12311
12140
11972
11685
11313
10787
10593
10453
10448
10581
10779
11333
11847
12360
12761
12992
13345
13448
13444
13417
13435
13284
13138
12959
12766
12580
12359
12337
12448
12557
12588
12491
12196
11963
11619
11167
10763
10434
9999
9961
10085
10308
10646
11092
11575
12201
12394
12542
12606
12581
12486
12205
11947
11734
11770
11991
12375
12778
13229
13670
14144
14576
14541
14355
14117
13969
13896
13911
13882
13886
13861
13606
12585
11996
11432
10787
10066
8903
8478
8168
7940
7674
7474
7424
7586
7925
8266
8615
9010
9604
10209
10997
11808
12479
13016
13813
14205
14579
14880
15064
15597
15918
16066
15979
15779
15498
14894
14618
14316
14024
13665
13033
12708
12385
12088
11897
11470
11108
10674
10240
9838
9552
9178
8767
8618
8639
8891
9349
9930
10615
12072
12535
12866
13120
13248
13427
13431
13410
13360
13270
13228
13151
13127
13141
13069
12974
12792
12799
12839
12843
12839
12786
12622
12474
12245
12067
12034
12056
12201
12271
12230
12112
11966
11922
11924
11912
11813
11736
11618
11617
11661
11662
11665
11663
11678
11707
11882
12139
12318
12406
12393
12380
12355
12387
12284
12260
12348
12367
12362
12365
12470
12603
12692
12668
12624
12536
12517
12380
12237
12049
11850
11804
11722
11614
11615
11778
12170
12261
12346
12314
12169
12027
12027
12115
12326
12625
12901
13314
13453
13533
13474
13309
12948
12801
12630
12478
12233
11604
11206
10673
10087
9541
9142
8976
8900
8811
8803
9029
9451
9947
10455
11380
11734
12121
12544
12832
13056
13405
13465
13521
13571
13746
13605
13455
13371
13377
13536
14107
14392
14586
14644
14697
14714
14504
14202
13751
13219
12670
11573
11087
10612
10241
9907
9623
9490
9482
9467
9279
8956
8708
8593
8571
8624
8954
9585
10369
12040
12729
13342
13825
14087
14095
14082
14065
14004
13892
13744
13516
13273
12983
12688
12363
11921
11932
11938
11997
12143
12430
12520
12611
12640
12656
12627
12531
12510
12511
12538
12566
12618
12566
12550
12573
12562
12481
12418
12334
12339
12314
12232
12122
12072
11990
11976
11984
12147
12158
12223
12289
12300
12215
12138
12221
12207
12121
12175
12378
12335
12371
12440
12501
12475
12341
12265
12184
12190
12272
12532
12563
12656
12722
12708
12562
12687
12607
12259
11996
12057
12735
12876
12753
12534
12130
11050
10427
9929
9584
9411
9424
9539
9727
10035
10402
10637
10750
10640
10423
10004
9614
9486
9700
10115
11490
12303
13109
13829
14432
15077
15827
15765
15622
15528
15360
14710
14406
14142
13687
13127
11874
11279
10824
10437
10107
9934
10006
10109
10202
10385
10615
10823
11323
11641
12011
12370
12544
12622
13047
13224
13355
13335
13295
13243
13176
13125
13047
13032
13021
13090
13096
12986
12853
12681
12440
12295
12216
12146
12033
11808
11688
11646
11800
11901
11944
11913
11840
11868
11939
11995
12256
12435
12648
12765
12737
12795
13114
13079
13025
13038
13015
13091
13158
13206
13131
12866
12558
12293
11922
11556
11260
10966
10299
10088
9920
9740
9693
9759
9878
10094
10265
10388
10724
10991
11280
11530
11877
12771
13103
13318
13358
13393
13437
13448
13435
13384
13336
13198
12927
12760
12603
12509
12386
12061
11682
11246
10765
10376
10106
10315
10837
11312
11707
12060
12650
12852
12943
13082
13454
13834
14050
14134
14365
14693
15000
15120
14889
14532
14241
13874
13630
13868
13836
13611
13357
12987
11805
10758
9480
8176
7025
6119
5534
5151
4977
5300
6051
7055
8293
9383
10248
10945
12064
12482
12701
12807
12976
13258
13907
14202
14395
14495
14512
14581
14536
14502
14434
14289
14104
13707
13671
13824
13792
13547
13026
12813
12631
12423
12364
12409
12278
12231
12301
12444
12562
13029
13222
13366
13394
13378
13311
13175
13043
12983
12923
12786
11947
11495
11089
10747
10464
9684
9229
8792
8379
8149
8059
8245
8707
9289
9824
10305
10796
11309
11707
11907
11941
12058
12295
12624
13065
13834
13955
13976
13989
13980
14021
13921
13689
13364
13178
13115
12865
12613
12486
12435
12489
12986
13239
13356
13460
13562
13529
13403
13416
13515
13475
13324
13154
13058
12885
12750
12687
12498
12123
12073
11938
11633
10991
9911
9698
9753
9841
9955
10156
10520
11197
11899
12432
13383
13341
13015
12544
11904
10492
10062
9928
10094
10374
10525
10646
10782
11066
11380
11736
12112
12672
12585
12199
11634
11080
10740
11033
11561
12202
12710
13018
13446
13552
13570
13525
13354
12751
12216
11696
11347
11205
11203
11528
11774
12026
12340
12668
13106
13262
13425
13499
13596
13686
13752
13758
13724
13609
13501
13304
13198
13034
12784
12526
12113
11880
11619
11333
11201
11267
11269
11188
11104
10996
10972
11259
11430
11554
11609
11711
11919
12256
12384
12583
12825
12930
12819
12604
12394
12367
12409
12447
12610
12701
12745
12675
12662
12674
12650
12668
12723
12758
12600
12439
12324
12225
12208
12373
12650
12701
12785
12813
12774
12460
12183
11945
11643
11291
10858
10367
10105
9903
9824
9864
10048
10250
10436
10579
10571
10720
11003
11308
11901
12133
12302
12506
12897
13623
14372
14488
14459
14351
14289
14348
14746
15404
15904
15867
15078
14503
13911
13352
12760
12125
10494
9634
8770
8069
7626
7386
7385
7740
8386
8998
9326
9303
9044
8819
8714
8894
9412
10167
10962
11969
13960
14708
15166
15415
15499
15400
15242
14990
14727
14474
14271
13681
13321
13010
12706
12311
11215
10724
10480
10551
10863
11256
11950
12279
12478
12629
12747
13058
13059
13053
13079
13073
12920
12862
12770
12497
12267
12116
11794
11610
11459
11339
11238
11122
11199
11399
11531
11622
11708
12053
12210
12254
12321
12422
12618
12773
12948
13149
13416
13634
13642
13556
13416
13333
13307
13136
12893
12715
12614
12460
12018
11658
11248
10752
10183
9579
9014
8675
9024
9494
9795
10095
10469
10923
11406
11822
12243
12838
13078
13296
13468
13517
13625
13744
13777
13654
13434
13013
12897
12813
12710
12688
12628
12639
12704
12785
12866
12765
12151
11808
11540
11348
11280
11505
12174
12394
12478
12610
12659
12606
12446
12322
12246
12064
11911
11648
11521
11365
11287
11378
11744
11959
12127
12117
11942
11491
11139
10826
10699
10757
10968
11455
11424
11205
11056
11039
11592
12217
12798
13179
13368
13570
14114
14206
14099
13905
13665
12954
12703
12582
12627
12643
12304
12046
11826
11660
11540
11416
11204
11147
11122
11155
11235
11031
11113
11479
11983
12312
12394
12396
12442
12484
12485
12542
12654
12792
13054
13391
13610
13726
13660
13510
13348
13193
13057
12655
12406
12048
11703
11449
10985
10808
10739
10698
10707
10836
11216
11203
11135
11026
10911
10975
11137
11486
11926
12401
12772
12997
13059
13056
12986
12943
12953
13099
13286
13395
13474
13411
13332
13261
13191
13053
12859
12259
11978
11780
11601
11396
11575
11651
11616
11530
11435
11422
12052
12161
12184
12222
12056
11418
11320
11427
11613
11813
12257
12438
12555
12501
12318
12123
11579
11237
10816
10468
10209
10236
10506
11031
11606
12088
12445
12944
13196
13516
14001
14507
15248
15139
14885
14563
14178
13815
13294
13050
12825
12557
12295
11843
11587
11194
10658
10066
8817
8361
8118
8253
8771
9480
10252
10929
11481
11914
12228
12670
12953
13137
13310
13448
13544
13653
13692
13667
13631
13526
13267
13012
12742
12480
12262
12183
12092
12150
12188
12168
12209
12299
12303
12378
12413
12444
12507
12382
12126
11936
11859
11829
11748
11912
12193
12459
12724
12717
12535
12438
12286
12112
11959
11649
11618
11681
11796
11921
11865
11609
11305
11051
10848
10649
10724
11069
11604
12128
12522
12971
13045
13178
13263
13310
13306
13252
13251
13312
13378
13405
12911
12619
12540
12428
12258
11750
11436
11212
11000
10723
10540
10631
10834
11151
11425
11743
12567
12941
13223
13278
13197
13163
13113
13033
12977
12873
12642
11589
10981
10343
9759
9399
9381
9693
10258
10981
12403
12833
13067
13221
13381
13572
13624
13527
13401
13186
12838
11772
11161
10799
10755
10786
11369
11807
12168
12486
12814
13514
13617
13542
13351
13108
12920
12659
12515
12325
12175
12168
12045
11931
11825
11630
11473
11332
11076
10924
10914
10956
11057
11566
11860
12142
12341
12538
12792
13313
13368
13385
13351
13322
13217
13143
13043
13010
13034
13174
13254
13263
13033
12812
12578
12008
11729
11419
10989
10640
10578
10786
11158
11464
11550
11526
11190
10836
10530
10262
10210
10775
11046
11301
11602
12072
12906
12993
13067
13104
13154
13181
13292
13275
13222
13186
13176
13027
12986
13020
13041
12974
12900
12864
12874
12837
12781
12679
12368
12228
12109
11965
11902
11950
12198
12219
12305
12441
12570
12759
12584
12292
11971
11641
11237
11218
11232
11130
10780
10368
9508
9134
8764
8555
8649
9149
9822
10544
11215
11804
12369
12876
13680
13954
14163
14300
14443
14435
14410
14323
14216
14164
14248
14330
14386
14365
14161
13847
12924
12468
11954
11318
10624
9794
9830
9966
10120
10279
10433
10457
10405
10315
10597
11001
11427
11819
12142
12477
12727
12950
13162
13271
13458
13540
13555
13435
13085
12743
12352
12254
12204
12194
12130
11990
11986
11993
12085
12173
12200
12234
12289
12374
12426
12509
12453
12339
12255
12208
12184
12157
12088
12030
11878
11638
11390
11041
10996
11101
11366
11630
12178
12309
12296
12272
12298
12375
12532
12631
12618
12593
12567
12569
12495
12420
12341
12307
12315
12356
12409
12416
12386
12376
12461
12466
12491
12530
12466
12182
12030
11840
11736
11819
11928
11919
11859
11748
11643
11595
11720
11840
11969
12089
12191
12293
12322
12352
12330
12308
12247
12175
12159
12134
12152
12222
12288
12307
12264
12211
12191
12169
12202
12225
12259
12278
12266
12224
12187
12184
12190
12194
12174
12185
12191
12191
12170
12101
12087
12093
12169
12127
12096
12175
12214
12193
12135
12101
12151
12186
12181
12184
12170
12155
12212
12191
12217
12189
12207
12188
12117
12123
12145
12160
12141
12019
11999
12010
12047
12084
12088
12128
12135
12134
12093
12074
12110
12126
12171
12230
12244
12177
12208
12216
12208
12185
12204
12173
12152
12178
12199
12198
12125
12166
12177
12135
12076
12131
12108
12126
12096
12085
12048
12090
12144
12149
12211
12250
12274
12253
12241
12249
12228
12221
12128
12085
12097
12136
12171
12070
12068
12029
12041
12054
12129
12225
12240
12245
12194
12165
12205
12253
12252
12263
12282
12249
12232
12229
12227
12212
12197
12215
12177
12142
12162
12160
12129
12096
12136
12132
12120
12145
12227
12226
12253
12243
12187
12188
12191
12205
12203
12224
12241
12245
12286
12294
12249
12224
12186
12149
12152
12203
12240
12336
12328
12334
12324
12303
12283
12294
12284
12287
12238
12115
11857
11867
11866
11847
11811
11807
11698
11552
11475
11462
11504
11700
11779
11823
11911
12059
12370
12490
12561
12637
12726
12834
12988
12970
12922
12886
12813
12640
12575
12554
12477
12386
12293
12023
11976
11935
11872
11846
11892
11872
11814
11736
11673
11722
11830
11932
12025
12120
12250
12378
12321
12230
12188
12171
11885
11804
11701
11663
11692
11931
12666
12912
13002
12930
12803
12522
12408
12327
12247
12126
12038
11759
11488
11154
11022
10950
10576
10654
10912
11368
11824
12388
12593
12833
13022
13049
12993
12799
12753
12753
12757
12774
12788
12763
12731
12677
12627
12600
12576
12531
12422
12282
12162
12046
12101
12128
12120
12081
11798
11601
11462
11379
11393
11486
11929
11996
12039
12112
12102
11991
11991
12059
12102
12146
12148
12059
12048
12026
12080
12169
12249
12299
12359
12410
12405
12392
12385
12414
12493
12578
12600
12690
12699
12696
12717
12741
12654
12552
12426
12302
12212
12159
12012
11788
11510
11315
11237
11313
11450
11505
11501
11394
11296
11264
11373
11462
11639
11880
12418
12590
12686
12746
12778
12817
12785
12738
12704
12701
12690
12622
12476
12276
12065
11983
11974
11931
11970
11989
12044
12130
12294
12312
12335
12326
12297
12055
12052
12092
12170
12174
12082
12067
12158
12282
12340
12279
12036
12005
12017
11996
11957
12033
12032
12046
12103
12174
12237
12210
12174
12164
12209
12312
12467
12526
12512
12470
12441
12414
12278
12216
12122
12002
11947
12052
12088
12120
12158
12122
12163
12129
12159
12251
12306
12340
12368
12367
12406
12454
12508
12500
12498
12487
12449
12421
12400
12305
12226
12189
12144
12105
12094
12114
12014
11883
11821
11828
11890
11896
11890
11810
11711
11672
11642
11712
11845
12035
12372
12495
12563
12535
12443
12402
12363
12293
12259
12300
12313
12218
12148
12111
12037
11971
11883
11982
11980
11998
12150
12192
12222
12201
12134
12101
12113
12194
12186
12218
12212
12212
12161
12069
12112
12164
12227
12215
12238
12257
12247
12279
12266
12231
12260
12293
12181
12065
12046
11958
11831
11708
11639
11711
11959
12003
12021
12088
12216
12299
12368
12257
12184
12155
12195
12262
12197
12142
12096
12105
12084
12166
12189
12175
12210
12275
12249
12212
12187
12159
12065
11928
11930
11858
11859
11871
11881
11947
12035
12145
12247
12307
12389
12355
12336
12313
12329
12359
12317
12294
12306
12292
12310
12378
12444
12537
12543
12470
12407
12374
12298
12177
12052
12028
11890
11773
11630
11590
11687
11784
11751
11729
11797
11942
12082
12187
12232
12337
12400
12400
12441
12424
12428
12417
12377
12362
12400
12448
12415
12393
12350
12335
12275
12181
12071
12037
12105
12141
12197
12244
12269
12243
12037
11972
11972
12059
12107
12362
12434
12475
12503
12496
12457
12453
12391
12221
12111
12091
12064
11991
11869
11765
11742
11774
11897
11939
11918
11891
11923
12088
12063
12125
12156
12161
12237
12343
12416
12425
12414
12338
12204
12190
12138
11961
11703
11316
11409
11600
11844
12044
12185
12358
12418
12408
12399
12389
12378
12310
12249
12253
12315
12328
12316
12346
12363
12351
12340
12357
12403
12420
12390
12344
12211
12087
12043
11998
11956
11937
11931
11983
12066
12156
12221
12211
12155
12057
12037
12061
12084
12200
12255
12331
12368
12362
12297
12310
12314
12298
12302
12312
12286
12254
12223
12182
12122
12096
12044
11980
11887
11896
11949
11891
11769
11743
11797
11858
12100
12253
12344
12392
12397
12335
12295
12336
12322
12312
12329
12310
12320
12318
12327
12298
12282
12212
12145
12020
11888
11799
11864
11923
11872
11881
11935
12032
12075
12101
12157
12202
12171
12189
12284
12355
12344
12373
12459
12462
12494
12433
12369
12338
12323
12325
12318
12301
12368
12323
12316
12188
12085
12054
11918
11713
11536
11447
11498
11744
11854
12019
12266
12410
12513
12566
12592
12635
12656
12607
12444
12306
12114
11905
11685
11595
11697
11806
11912
12011
12117
12226
12235
12313
12356
12392
12396
12361
12314
12344
12381
12379
12373
12362
12335
12316
12286
12176
12080
11975
11877
11844
11908
11992
12060
12099
12079
12086
12104
12108
12170
12195
12224
12249
12225
12184
12203
12231
12242
12226
12240
12255
12280
12273
12204
12215
12207
12193
12184
12166
12159
12136
12175
12172
12087
12088
12055
12015
12050
12144
12135
12144
12169
12181
12190
12246
12243
12260
12266
12242
12234
12185
12222
12241
12311
12282
12239
12099
12054
12028
12030
12043
12243
12269
12237
12259
12166
11942
11966
11945
11970
12007
12008
11939
11995
12091
12227
12216
12248
12268
12277
12273
12189
12091
11855
11933
12029
12141
12189
12269
12257
12281
12285
12322
12327
12324
12284
12252
12257
12253
12252
12288
12342
12364
12383
12263
12224
12196
12182
12188
12179
12152
12160
12160
12118
12100
12027
12079
12107
12150
12158
12195
12239
12251
12257
12253
12272
12250
12200
12220
12173
12136
12049
11998
11952
11961
11981
12007
12077
12130
12149
12189
12195
12090
12088
12123
12129
12153
12174
12265
12308
12319
12318
12321
12388
12418
12423
12432
12401
12217
12151
12000
11856
11708
11618
11521
11605
11763
11861
11942
11997
12010
12065
12094
12143
12239
12344
12350
12349
12311
12277
12350
12408
12378
12350
12303
12259
12135
12144
12107
12097
12140
12160
12171
12183
12219
12224
12169
12180
12204
12180
12096
12102
12180
12276
12330
12351
12332
12325
12261
12134
12047
12015
12053
12047
12021
11963
11992
12060
12146
12137
12170
12210
12292
12284
12238
12224
12223
12189
12176
12306
12370
12359
12251
12033
11757
11883
11993
12069
12159
12188
12312
12380
12481
12554
12585
12568
12540
12404
12135
11897
11744
11606
11595
11614
11659
11746
11924
11992
12105
12239
12320
12404
12441
12459
12446
12429
12427
12397
12277
12148
12114
12078
12109
12127
12128
12085
12071
12036
11988
11950
11978
12097
12129
12242
12347
12365
12375
12312
12164
12215
12275
12307
12327
12358
12337
12344
12353
12313
12291
12127
11945
11795
11811
11863
11863
11994
11922
11895
11838
11791
11894
11996
12152
12278
12376
12391
12471
12496
12500
12469
12439
12669
12782
12756
12712
12621
12480
12414
12402
12434
12482
12393
11559
11037
10722
10703
10970
11396
11558
11685
11891
12049
12180
12228
12340
12409
12418
12434
12495
12519
12466
12458
12434
12393
12384
12386
12363
12341
12382
12353
12345
12267
12307
12335
12163
12156
12250
12245
12179
12083
11961
12037
12077
12087
11998
12175
12314
12352
12334
12296
12148
12132
12108
12063
12044
11962
11835
11838
11848
11854
11918
11970
12028
12057
12062
12125
12184
12205
12281
12349
12389
12415
12478
12494
12453
12420
12345
12208
11990
11988
12029
12072
12127
12247
12297
12329
12353
12469
12639
12581
12444
12343
12287
12267
12160
12101
12097
12166
12131
11786
11516
11378
11292
11268
11270
11471
11592
11679
11754
11875
12252
12388
12478
12443
12413
12432
12426
12447
12470
12409
12333
12275
12199
12214
12275
12355
12504
12546
12548
12540
12517
12496
12437
12459
12456
12363
12263
12221
12260
12242
12179
12133
12200
12224
12133
12000
11929
11918
11952
11920
11924
11927
11856
11811
11866
11932
11979
11988
12076
12084
12010
11910
11862
11893
12028
12056
12101
12129
12041
11941
12003
12131
12250
12315
12354
12556
12586
12598
12610
12694
12729
12694
12622
12577
12569
12562
12499
12384
12145
11858
11583
11332
11322
11378
11473
11585
11725
11936
12032
12155
12285
12423
12604
12571
12392
12216
12081
11952
11939
12006
12042
12094
12160
12199
12217
12244
12298
12246
12273
12371
12554
12695
12756
12718
12663
12550
12425
12386
12407
12412
12353
12255
12173
12168
12168
11933
11752
11487
11219
11015
11067
11208
11360
11567
11731
12062
12221
12350
12398
12453
12479
12515
12495
12515
12470
12510
12520
12505
12494
12479
12505
12523
12519
12421
12394
12304
12195
12328
12464
12522
12526
12518
12353
12273
12207
12128
12035
11943
11794
11760
11820
11891
11982
11888
11639
11403
11181
11000
10930
11190
11269
11366
11558
11841
12315
12531
12723
12856
12933
12984
13044
13069
13102
13143
13177
13230
13245
13170
13049
12867
12447
12302
12141
11912
11764
11760
11692
11586
11460
11333
11186
10747
10608
10621
10769
11000
11174
11335
11449
11674
11948
12201
12575
12658
12801
12890
12927
13045
13085
13089
13068
12989
12927
12828
12755
12724
12746
12755
12664
12567
12466
12370
12232
12093
11637
11475
11386
11378
11427
11493
11547
11603
11687
11796
12015
12123
12217
12294
12300
12263
12315
12311
12324
12390
12455
12566
12642
12707
12657
12602
12517
12450
12413
12356
12390
12469
12455
12302
12283
12218
12191
12249
12318
12290
12212
12139
12029
11823
11701
11548
11381
11240
10962
10882
10829
10813
10863
11041
11580
11775
11924
12079
12241
12530
12589
12649
12648
12625
12594
12693
12738
12726
12729
12711
12663
12682
12651
12644
12659
12645
12580
12499
12427
12306
12209
12273
12268
12267
12271
12276
12253
12200
12098
12032
12010
12004
11869
11854
11788
11705
11555
11243
11266
11543
11903
12125
12330
12747
12817
12857
12843
12905
12975
12914
12730
12563
12453
12497
12507
12448
12397
12474
12551
12335
12096
11841
11529
11241
10945
11019
11226
11414
11509
11603
11746
11798
11932
12053
12129
12275
12285
12301
12416
12542
12877
13150
13431
13654
13757
13558
13009
12728
12409
12115
11897
11790
11816
11746
11586
11340
10989
10307
9975
9753
9615
9549
9602
9738
9954
10304
10719
11218
11832
12721
12995
13145
13349
13432
13499
13513
13560
13527
13476
13254
13053
12916
12865
12826
12786
12647
12564
12533
12502
12418
12401
12460
12524
12539
12594
12679
12753
12727
12668
12605
12572
12394
12357
12361
12281
12196
11999
11821
11702
11707
11806
11863
11897
11781
11593
11432
11325
11107
11175
11266
11349
11426
11566
11882
12038
12180
12276
12440
12579
12605
12678
12788
12850
12895
12917
12946
12951
13059
13082
13114
13342
13485
13451
13337
12954
12696
12507
12301
12057
11746
11287
11091
10908
10709
10513
10480
10520
10562
10567
10481
10425
10566
10737
11047
11400
11665
12002
12371
12808
13277
13633
13901
13919
13923
13902
13761
13503
12836
12533
12339
12204
12070
11724
11408
11049
10824
10660
10589
10647
10841
11250
11848
12492
13207
13308
13236
13156
13078
13018
13014
13082
13151
13170
13139
13080
13034
12879
12613
12228
11413
10968
10463
10063
9840
9844
10044
10490
11443
11779
12032
12177
12203
12298
12480
12655
12844
13042
13250
13243
13198
13123
13080
13120
13156
13084
12952
12749
12654
12311
12081
11882
11631
11315
11019
10537
10467
10623
10917
11148
11671
12078
12450
12654
12828
12904
12889
12889
12865
12871
12847
12782
12677
12539
12298
12008
11808
11770
11710
11697
11747
11814
11951
11962
11931
11952
12007
12065
12270
12469
12590
12614
12597
12622
12713
12936
13175
13289
13084
12838
12560
12363
12227
12079
12005
11918
11832
11712
11595
11529
11595
11623
11623
11619
11669
11736
11725
11728
11666
11641
11669
11711
11817
11963
12067
12218
12450
12747
12958
13081
13308
13362
13372
13484
13713
13931
13978
13609
13066
12555
12115
11486
11314
11264
11196
11055
10900
10233
9718
9131
8645
8456
8495
8820
9332
9828
10314
10789
11428
12932
13396
13629
13812
13983
14122
14179
14098
14046
13990
13876
13481
13278
13031
12971
13054
13288
13667
13612
13460
13320
13205
13069
12988
12815
12557
12330
12227
12169
12139
12065
11865
11609
10972
10414
9735
9024
8289
7619
7169
7086
7497
8231
9056
9977
10974
11864
13262
13683
13915
14122
14284
14444
14681
14673
14621
14524
14370
13996
13887
13716
13536
13401
13247
13019
12999
12950
12683
12284
11394
11002
10654
10398
10224
10088
10254
10485
10744
10998
11295
11872
12133
12325
12512
12700
12883
12925
12977
12996
12936
12852
12863
12965
13023
12997
12955
12943
12910
12916
12850
12702
12568
12349
12331
12347
12400
12419
12007
11644
11401
11264
11168
10801
10717
10848
11067
11296
11633
12178
12288
12324
12302
12233
12166
12113
12057
12048
12043
11999
12194
12224
12267
12339
12428
12766
12951
13002
12851
12863
13075
12932
12712
12512
12458
12580
12694
12670
12538
12375
12322
12536
12748
12844
12790
12507
12032
11146
10842
10439
9982
9459
9046
8999
9290
9665
10046
10394
10923
11076
11165
11271
11338
11391
11440
11581
11930
12293
12685
12921
13166
13330
13507
13561
13655
13726
13833
14000
14119
14155
14088
13973
13878
13793
13729
13855
13732
13580
13388
13144
12706
12532
12383
12259
12210
12187
12307
12107
11792
11488
11253
10930
10718
10456
10302
10300
10521
10670
10817
11047
11280
11390
11507
11451
11291
11085
10982
11232
11501
11746
11909
12044
12317
12857
12973
13036
13058
12924
12394
12332
12450
12650
12896
13267
13342
13314
13163
12895
12564
11762
11482
11331
11299
11342
11626
11827
12049
12215
12289
12322
12452
12485
12573
12628
12730
12687
12700
12757
12791
12788
12719
12454
12382
12333
12279
12293
12286
12311
12270
12181
12024
11750
11690
11647
11579
11497
11532
11570
11568
11750
11991
12179
12486
12592
12681
12711
12710
12739
12673
12609
12555
12476
12385
12298
12387
12370
12369
12380
12517
12534
12534
12462
12384
12390
12335
12214
11941
11673
11262
10538
10383
10418
10556
10742
10917
10947
10911
11034
11252
11413
11822
12340
12933
13407
13725
13957
13926
13815
13680
13497
13384
13258
13129
12973
12866
12879
12636
12262
11881
11658
11551
11551
11327
11322
11331
11359
11261
10694
10276
9963
9782
9711
9818
10123
10474
10697
11092
11241
11410
11639
11968
12220
12683
12891
13175
13380
13582
14160
14398
14536
14675
14805
14642
14580
14515
14423
14269
14150
13673
13325
12996
12696
12462
11769
11403
11043
10684
10283
9962
9701
9620
10121
10395
10588
10779
10976
11128
11266
11321
11459
11615
11762
12246
12448
12556
12631
12669
12755
12891
12894
12913
12906
12778
12269
12070
11941
11895
11915
11957
12058
12213
12413
12554
12635
12678
12726
12842
12928
12973
12856
12706
12564
12586
12594
12519
12435
12492
12500
12423
12232
11649
11433
11291
11132
10939
10868
11039
11126
11164
11310
11534
11899
12060
12209
12421
12660
13159
13282
13355
13235
13065
12902
12617
12489
12374
12335
12338
12416
12425
12353
12187
11888
11529
11408
11609
11896
12235
12575
12960
13048
13080
12996
12916
12850
12795
12695
12535
12348
12138
11875
11617
11279
11031
11004
10936
10757
10687
10703
10725
10718
11052
11256
11513
11856
12187
12833
13029
13241
13268
13160
13076
12969
12615
12080
11586
11212
11252
11496
11898
12275
12636
12955
13045
13196
13147
12858
12507
11840
11490
11271
11283
11395
11708
11867
11965
11945
11902
11796
11434
11287
11278
11262
11414
12150
12568
12997
13263
13340
13320
13440
13640
13722
13713
13726
13794
13659
13362
12991
12639
12062
11696
11307
10959
10623
10316
10137
10273
10452
10566
10528
10484
10654
11039
11561
12084
12448
12939
13031
13042
13085
13084
12915
12923
12991
13090
13112
13065
12906
12790
12686
12573
12494
12395
12258
12228
12269
12312
12641
12694
12677
12720
12848
12958
13147
13012
12820
12646
12565
12320
12338
12164
11872
11502
11262
11464
11702
11868
11934
11909
11639
11547
11428
11298
11124
10971
11001
11143
11332
11613
12037
13148
13620
13879
13818
13434
12020
11277
10783
10597
10696
11038
12014
12266
12326
12338
12333
12684
12902
12927
13022
13083
12887
12833
12752
12635
12509
12370
12092
11703
11229
10871
10790
11000
10988
10898
10698
10543
10343
9664
9253
9045
9024
9167
9608
10227
10989
11735
12349
12815
13512
13866
14124
14297
14469
14722
14662
14647
14635
14625
14674
14710
14614
14483
14231
13896
13297
13018
12650
12333
12016
11372
11000
10713
10592
10488
10531
10728
11054
11464
11952
12373
12780
12853
12836
12704
12532
12469
12547
12642
12837
13137
13320
13167
12980
12827
12571
12189
11271
10794
10488
10315
10225
10208
10264
10482
10853
11215
11538
12049
12337
12690
12980
12959
12960
12905
12883
12875
12877
12650
12045
11915
11915
11873
11830
11732
11441
11039
10721
10527
10373
10216
10213
10395
10669
10943
11919
12485
12944
13240
13315
13342
13364
13232
12965
12528
12103
11790
11862
11996
12260
12669
13170
13287
13337
13360
13359
13422
13427
13231
13028
12880
12651
12003
11734
11549
11350
11329
11611
12661
13061
13442
13837
14113
14327
14396
14248
13957
13710
13211
12922
12564
12101
11609
11108
10112
9622
9239
8995
8907
8881
8834
8776
8799
9030
9365
9799
10243
10636
11121
12442
13068
13503
13707
13763
13742
13588
13465
13356
13226
13014
12597
12556
12723
12923
13105
13213
13730
13858
13833
13782
13660
13101
12762
12360
11997
11655
11341
11446
11797
12225
12590
12819
12938
12546
11946
11282
10626
9556
9458
9626
9838
10135
10528
10970
11375
11639
12072
12231
12325
12416
12586
12883
13314
13374
13409
13398
13412
13279
13175
13273
13407
13430
13380
13268
13221
13141
12987
12830
12409
12065
11733
11520
11366
11040
10802
10679
10719
10809
10847
10944
11075
11164
11344
11761
13205
13675
13936
14073
13914
13434
12549
12201
11977
11688
11391
10982
10873
10863
10953
11028
11249
11373
11342
11153
10997
10970
11096
11188
11481
11845
12253
13065
13397
13621
13738
13859
13948
13759
13684
13634
13504
13276
12559
11918
11274
10721
10290
9962
9962
10367
10911
11430
11970
12479
12842
13153
13072
12959
12879
12907
12744
12658
12719
12892
13079
13159
13191
13117
13069
12949
12711
12196
11938
11788
11834
11910
12104
12129
12096
12047
11987
11967
11892
11752
11584
11482
11621
12193
12403
12533
12673
12813
12863
12458
12268
12155
12002
11767
11454
11532
11482
11456
11426
11418
11329
11334
11393
11490
11588
11423
11478
11712
11838
11852
12161
12327
12451
12507
12442
12397
12660
13014
13314
13568
13746
13861
13865
13754
13592
13384
13181
13139
13185
13140
12961
12629
11926
11558
11214
10784
10162
8695
8197
8121
8372
8905
9548
10239
10893
11451
11858
12195
12886
13202
13483
13643
13765
13922
14190
14178
14214
14301
14244
13876
13697
13534
13385
13251
13102
12611
12197
11649
10971
10257
8833
8507
8483
8661
8965
9490
10325
11309
12249
12978
13341
13900
14050
14128
14216
14195
14081
13929
13687
13509
13325
13084
12366
11953
11565
11348
11336
11414
11251
11007
10707
10478
10275
10344
10708
11159
11645
12142
13108
13115
12929
12851
12925
13028
13037
12999
12943
12864
12802
12645
12594
12582
12558
12469
12483
12518
12461
12439
12394
12324
12049
11911
11741
11588
11440
11129
11126
11140
11145
11116
11201
11450
11800
12179
12561
12875
13078
13093
13081
13003
12997
13145
13264
13297
13274
13166
13035
12575
12318
12004
11681
11468
11069
11038
11215
11488
11792
12069
12211
12225
12174
12081
12019
11889
11770
11705
11651
11622
12026
12382
12604
12609
12435
12219
11608
11297
11104
10969
11055
11455
11589
11697
11848
12038
12278
12587
12622
12607
12527
12429
12028
11967
12056
12276
12454
12691
12696
12693
12624
12567
12643
12729
12667
12625
12619
12556
12242
12098
12102
12085
12120
12318
12531
12535
12478
12337
12100
11706
11448
11204
11023
10923
10896
11019
11142
11373
11763
12269
13118
13367
13515
13626
13613
13371
13305
13269
13307
13308
13316
12977
12758
12527
12205
11772
11255
11109
11013
11019
11250
11507
11764
11848
11984
12032
11945
11622
11601
11639
11762
11872
11998
11985
11967
11964
11989
11978
12057
12074
12102
12038
11933
11628
11378
11163
11025
11187
11580
12346
12525
12699
12843
12903
12885
12813
12717
12653
12622
12600
12652
12744
12901
13033
13166
13336
13254
12989
12688
12316
12017
12024
12002
11869
11587
11459
11354
11267
11124
10954
10802
10730
10803
10855
11167
11669
12230
12814
12910
12938
12897
12860
12885
12934
12974
12955
12918
12588
12352
12190
12069
11931
11808
11747
11800
11873
11975
12043
12167
12254
12322
12326
12320
12363
12717
12890
12997
12940
12763
12464
12422
12359
12262
12159
12068
12136
12240
12406
12495
12476
12176
11948
11709
11602
11468
11361
11359
11293
11187
11080
10986
11168
11390
11580
11907
12268
12590
12740
12838
12918
12921
12920
12906
12885
12856
12842
12800
12698
12468
12169
11928
11647
11071
11003
11083
11161
11312
11643
12334
12516
12624
12696
12714
12602
12543
12561
12575
12560
12530
12211
11999
11792
11485
11058
10810
11130
11432
11671
11917
12424
12804
13152
13371
13338
13191
13101
13073
12970
12727
12550
12276
12181
12277
12384
12319
12111
11707
11415
11129
10930
10735
10800
11097
11423
11763
12022
12366
12494
12577
12620
12703
12800
13104
13139
13084
12996
12981
12990
13012
12937
12868
12801
12687
12470
12276
12074
11915
11709
11026
10640
10267
10053
10118
10431
11199
11539
11768
11912
12051
12310
12397
12503
12592
12659
12942
13048
13073
12942
12764
12562
12416
12397
12306
12191
12171
12189
12237
12311
12367
12422
12397
12146
12085
12078
12194
12340
12690
12801
12793
12665
12410
12170
11942
11682
11582
11585
11635
11844
11892
11915
11938
11955
12054
12121
12174
12120
12097
12144
12332
12289
12225
12124
11992
11908
12002
12160
12300
12343
12295
12302
12412
12487
12512
12448
12345
12311
12221
12117
12097
12409
12447
12465
12544
12646
12682
12446
12369
12358
12300
12230
12177
12318
12380
12342
12142
11766
11064
10852
10694
10668
10834
11355
11486
11505
11511
11495
11326
11344
11616
12042
12379
12670
13075
13148
13100
13021
12910
12546
12452
12402
12317
12222
12206
12300
12377
12288
12217
12236
12398
12484
12522
12447
12411
12567
12594
12616
12671
12617
12601
12670
12579
12385
12147
12017
11940
12013
12138
12188
12061
11890
11332
11196
11139
11138
11271
11653
11737
11842
11990
12099
12270
12437
12497
12527
12518
12529
12635
12659
12720
12716
12692
12578
12523
12531
12601
12576
12524
12400
12384
12324
12176
11983
11710
11700
11759
11844
11899
11978
12082
12025
11930
11879
11840
12026
12146
12201
12224
12203
11991
11919
11934
12032
12102
12132
12015
11966
11978
12022
12121
12393
12445
12438
12364
12252
12155
12227
12342
12394
12454
12565
12782
12714
12626
12503
12375
12182
12095
12071
12074
11991
11769
11404
11061
10813
10769
10949
11472
11671
11759
11846
12034
12163
12118
12148
12236
12311
12451
12873
13056
13142
13096
13009
12972
12943
12914
12863
12845
12765
12262
11960
11747
11561
11283
10951
10918
11002
11316
11750
12169
12620
12702
12618
12436
12306
12265
12242
12233
12273
12244
12230
12231
12148
12042
11979
11912
12027
12135
12161
12214
12230
12224
12412
12521
12599
12667
12716
12641
12493
12378
12377
12423
12411
12423
12412
12434
12370
12197
11737
11630
11618
11711
11812
11960
11955
11894
11915
11864
11808
11907
12040
12153
12198
12267
12380
12453
12569
12521
12286
11904
11813
11829
11901
11988
12057
11967
12001
12041
12023
12047
12330
12485
12469
12423
12504
12534
12368
12273
12222
12178
12173
12199
12164
12175
12242
12275
12327
12324
12306
12225
12068
11813
11589
11467
11397
11359
11449
12038
12293
12406
12350
12308
12229
12149
12270
12403
12464
12516
12552
12539
12540
12552
12501
12428
12399
12380
12340
12316
12298
12097
12029
12005
12056
12063
12132
12072
11949
11832
11796
11839
11981
12173
12363
12459
12541
12462
12399
12340
12351
12329
12329
12465
12498
12500
12444
12402
12120
12000
11924
11868
11664
11401
11406
11426
11503
11533
11649
11899
12081
12283
12445
12599
12717
12719
12665
12662
12729
12730
12543
12439
12341
12178
11934
11640
11568
11644
11768
11915
11972
12077
12084
12077
12015
12025
12077
12007
11944
11924
11962
12246
12260
12125
11996
11987
12047
12232
12371
12468
12504
12453
12381
12244
12105
12006
11962
11960
12167
12257
12270
12283
12265
12362
12404
12451
12459
12421
12344
12270
12174
12130
12085
12003
11980
12126
12194
12203
12181
11968
11961
12060
12184
12255
12230
12170
12223
12235
12198
12114
12117
12146
12152
12115
12139
12169
12312
12283
12276
12237
12257
12170
12161
12228
12208
12051
11928
11906
11867
11921
11976
12086
12266
12363
12377
12333
12262
12329
12381
12286
12242
12293
12296
12208
12089
12020
11954
11904
11740
11723
11813
11928
11958
11902
11987
12105
12200
12297
12375
12430
12464
12550
12618
12626
12625
12578
12507
12505
12579
12642
12561
12403
12137
11869
11669
11599
11601
11600
11572
11577
11456
11529
11616
11679
11786
11864
12155
12267
12383
12470
12485
12416
12402
12380
12353
12355
12413
12437
12452
12445
12414
12385
12441
12445
12388
12440
12446
12488
12454
12420
12377
12348
12299
12144
12096
12013
11920
11807
11427
11419
11504
11636
11762
11834
11969
12124
12268
12311
12277
12343
12380
12356
12382
12400
12414
12455
12478
12457
12418
12391
12268
12217
12171
12100
11999
11854
11800
11750
11723
11780
11860
12224
12332
12351
12342
12296
12282
12309
12265
12210
12250
12347
12398
12403
12350
12329
12309
12365
12386
12384
12426
12463
12404
11935
11724
11587
11544
11490
11245
11279
11441
11604
11751
11986
12108
12170
12222
12346
12456
12485
12488
12489
12438
12394
12402
12409
12391
12361
12368
12393
12262
12249
12257
12237
12174
12235
12293
12305
12305
12272
12180
12145
12138
12143
12189
12295
12302
12254
12248
12243
12179
12063
11961
11847
11803
11839
11900
11849
11824
11844
11849
11872
11975
12102
12202
12288
12303
12302
12351
12352
12344
12306
12362
12404
12379
12392
12372
12331
12305
12314
12274
12213
12186
12202
12153
12051
12047
12118
12158
12224
12256
12228
12222
12211
12184
12118
12074
11972
11929
11960
12055
12095
12047
12040
11988
12187
12304
12334
12311
12331
12387
12376
12318
12297
12316
12306
12334
12302
12273
12213
12095
11895
11430
11388
11483
11613
11684
11870
11930
12028
12172
12275
12421
12426
12429
12417
12381
12376
12348
12308
12225
12232
12258
12181
12207
12269
12312
12317
12302
12227
12213
12240
12285
12280
12306
12332
12329
12266
12257
12196
12050
12023
12028
11959
11923
11951
12018
12072
12031
12025
12041
12059
12082
12134
12195
12266
12294
12262
12206
12241
12295
12306
12247
12243
12252
12233
12222
12139
12090
12036
11990
11988
12116
12112
12151
12099
12058
12033
12013
12084
12137
12180
12230
12202
12183
12183
12221
12216
12256
12280
12285
12300
12268
12299
12250
12266
12273
12284
12266
12223
12196
12181
12134
12056
12025
12000
12012
12081
12111
12111
12154
12124
12122
12172
12216
12257
12304
12310
12305
12257
12237
12180
12167
12163
12142
12113
12073
12028
12057
12071
12050
12081
12100
12131
12147
12170
12223
12221
12144
12072
12098
12151
12123
12163
12203
12280
12317
12310
12220
12151
11995
11887
11876
11905
11981
12000
11950
11902
11917
11982
11998
11946
11971
12082
12251
12267
12296
12297
12259
12385
12478
12504
12502
12421
12292
12221
12220
12222
12258
12239
12126
12117
12132
12117
12146
12144
12184
12208
12195
12214
12310
12309
12270
12173
12112
12076
12080
12107
12167
12149
12140
12078
12096
12116
12175
12213
12243
12151
12092
12060
12045
12045
12025
12143
12189
12249
12332
12343
12354
12347
12244
12138
12095
12131
11991
12027
12115
12204
12233
12211
12216
12250
12287
12321
12263
12233
12277
12331
12311
12230
12029
11982
12003
12020
12010
11990
11957
11950
11891
11907
11952
11998
12004
12114
12183
12254
12449
12503
12566
12615
12651
12621
12549
12508
12468
12384
12330
12128
11908
11738
11550
11343
11439
11785
12028
12101
12086
12098
12120
12119
12120
12190
12227
12260
12245
12182
12169
12227
12293
12263
12249
12276
12291
12299
12285
12300
12301
12337
12372
12421
12415
12404
12377
12316
12295
12412
12419
12340
12174
12059
12029
12004
11985
11929
11877
11841
11686
11649
11739
11913
12070
12114
12093
12085
12062
12076
12142
12175
12258
12366
12432
12486
12624
12624
12560
12425
12224
11858
11794
11857
11975
12001
12057
12064
12054
12100
12112
12143
12137
12173
12154
12155
12108
12042
12085
12136
12166
12219
12212
12317
12328
12310
12315
12346
12266
12243
12228
12221
12240
12258
12224
12180
12153
12095
12105
12266
12327
12380
12410
12391
12430
12508
12540
12609
12591
12545
12417
12365
12322
12279
12275
12092
11950
11647
11342
11067
10836
10620
10669
10892
11157
11389
11826
12036
12249
12404
12477
12508
12583
12587
12618
12668
12695
12689
12783
12852
12871
12881
12887
12832
12736
12698
12582
12441
12243
12218
12188
12197
12240
12012
11859
11720
11733
11713
11740
11715
11637
11482
11279
11103
11172
11442
11634
11748
11820
11970
12338
12504
12595
12671
12656
12617
12594
12526
12458
12457
12475
12432
12423
12392
12387
12333
12429
12515
12617
12626
12593
12434
12357
12374
12408
12331
12154
11911
11804
11678
11572
11547
11667
11669
11691
11704
11783
11953
12125
12194
12197
12253
12316
12288
12380
12468
12535
12547
12491
12470
12501
12537
12532
12519
12639
12563
12444
12319
12181
11648
11583
11591
11694
11739
11817
11880
11986
12090
12149
12195
12289
12223
12161
12092
12069
12012
11974
12058
12120
12121
12110
12156
12129
12180
12332
12404
12148
11948
11826
11749
11693
11708
11947
11990
12019
11992
12008
12096
12207
12312
12357
12365
12391
12306
12254
12233
12221
12249
12434
12512
12568
12616
12627
12644
12595
12589
12559
12510
12434
12316
12284
12283
12186
12074
11853
11534
11242
11084
11110
11283
11718
11886
11973
12111
12202
12344
12477
12530
12562
12513
12472
12472
12483
12482
12482
12465
12442
12488
12521
12509
12445
12243
12072
11931
11870
11886
11938
12019
11981
11986
12041
12125
12130
12087
12012
12016
12034
12149
12256
12410
12535
12527
12462
12315
12387
12505
12518
12418
12353
12289
12282
12284
12181
12126
11902
11612
11301
11063
10855
10705
10802
11068
11362
11623
11883
12289
12376
12459
12497
12522
12632
12687
12723
12761
12764
12740
12687
12576
12559
12584
12643
12687
12592
12387
12119
11875
11773
11919
12137
12181
12117
12071
12179
12192
12282
12420
12499
12500
12467
12455
12433
12450
12476
12554
12572
12444
12225
11897
11121
10888
10761
10806
11023
11575
11777
11955
12113
12259
12462
12688
12724
12738
12746
12748
12587
12531
12519
12512
12477
12419
12226
12079
11823
11528
11296
11325
11473
11566
11593
11656
11878
11977
12128
12238
12297
12326
12364
12381
12424
12476
12554
12597
12586
12610
12614
12590
12566
12454
12500
12474
12529
12609
12773
12770
12768
12708
12661
12518
12358
12170
12077
12050
12133
12097
12079
12050
12002
11908
11673
11565
11488
11360
11209
11090
10786
10677
10743
10998
11260
11806
11968
12119
12226
12309
12584
12754
12899
12984
13081
13056
12945
12916
12962
13076
13160
13148
13077
13046
12999
12863
12673
12178
12009
11793
11635
11584
11666
11734
11758
11739
11649
11539
11417
11385
11266
11201
11234
11605
11868
12087
12145
12116
12035
11951
11829
11784
11858
11920
12064
12135
12322
12499
12723
13041
13120
13179
13170
13109
13011
12931
12905
12878
12842
12808
12305
11824
11358
10971
10759
10611
10674
10836
11063
11296
11469
11784
11833
12032
12261
12448
12676
12728
12758
12738
12731
12689
12761
12796
12755
12710
12713
12706
12742
12773
12846
12896
12894
12823
12790
12736
12653
12607
12465
12309
12173
12018
11836
11604
11508
11431
11405
11427
11515
11580
11665
11823
11967
12033
11996
11788
11442
11272
11096
11072
11206
11400
11706
11976
12251
12649
12770
12825
12866
12881
12814
12756
12735
12753
12742
12749
12503
12357
12231
12077
11799
11588
11579
11575
11662
11779
11988
12710
13163
13419
13484
13463
13343
13167
13068
13137
13225
13318
13392
13417
13311
13034
12657
11623
11118
10755
10380
9973
9639
9471
9486
9586
9761
9944
10072
10149
10046
9925
9816
9866
10096
10502
10973
12042
12652
13175
13559
13797
14214
14365
14436
14415
14259
14076
13667
13457
13292
13253
13156
13003
12970
12985
12920
12804
12594
11971
11648
11349
11123
10976
10901
11064
11332
11576
11796
12207
12324
12421
12521
12585
12617
12777
12794
12748
12714
12763
12605
12486
12462
12463
12448
12416
12326
12272
12250
12289
12320
12116
11924
11735
11567
11468
11389
11436
11530
11722
11895
11979
12109
12257
12388
12443
12608
12780
12871
12872
12828
12763
12615
12277
12032
11818
11655
11508
11311
11315
11452
11679
11904
12188
12428
12398
12391
12418
12344
12026
12049
12222
12372
12457
12434
12487
12609
12773
12879
12917
12735
12509
12284
12055
11829
11376
11165
10938
10743
10595
10488
10249
10050
9868
9842
9948
10144
10469
10860
11907
12386
12802
13105
13389
13864
14019
14080
14020
13892
13714
13516
13529
13520
13506
13498
13322
13130
13000
12794
12505
12074
11897
11626
11364
11216
11180
11252
11333
11522
11667
11745
11958
12031
12162
12278
12292
12204
11955
11813
11793
11920
12070
12186
12255
12378
12428
12420
12519
12747
12767
12720
12646
12590
12768
12892
12909
12820
12638
12129
11786
11444
11163
11014
10980
11324
11462
11579
11652
11656
11666
11683
11665
11648
11662
11711
12050
12277
12437
12479
12500
12627
12649
12692
12869
13045
13261
13293
13288
13267
13190
13161
13035
12891
12581
12197
11800
10975
10734
10571
10492
10570
10853
11542
11683
11787
11853
11929
12158
12333
12438
12518
12581
12645
12717
12778
12884
12989
13075
13035
12907
12719
12501
12296
11941
11691
11655
11649
11665
11689
11698
11710
11748
11839
11914
12254
12504
12705
12780
12819
12817
12875
12843
12819
12693
12465
11768
11310
10877
10503
10186
9831
10010
10323
10647
10985
11381
11796
12454
12765
13087
13287
13293
13295
13307
13263
13161
13010
12845
12791
12916
13044
13054
13068
12863
12724
12599
12490
12384
12027
11843
11743
11677
11481
11210
11029
11106
11197
11245
11221
11396
11634
11863
12062
12415
12706
12922
12909
12927
12947
12971
12953
12996
13071
13127
13089
12779
12530
12315
12231
12187
12045
11776
11697
11689
11792
11916
11983
11779
11514
11259
11081
11032
10992
10863
10720
10512
10425
10816
11145
11381
11584
11875
12625
13021
13200
13337
13355
13336
13319
13323
13377
13465
13481
13320
13205
13094
12963
12889
12865
12648
12492
12304
12096
11952
11707
11612
11570
11536
11548
11633
11821
11840
11919
11965
11910
11921
12099
12303
12448
12539
12436
12352
12151
11995
11898
11864
12019
12261
12524
12766
12855
13106
13205
13129
12913
12680
12540
12325
12066
11726
11445
11162
10605
10522
10394
10282
10226
10146
10221
10311
10421
10610
10833
11853
12344
12723
13044
13349
13804
13899
13877
13817
13771
13721
13534
13378
13169
13015
12886
12586
12358
12112
11826
11441
11084
10579
10528
10662
10836
11032
11663
12026
12426
12842
13179
13540
13654
13610
13474
13252
13034
12783
12725
12660
12576
12531
12324
12323
12359
12332
12196
12008
11493
11246
11009
10803
10647
10816
11110
11435
11751
12038
12547
12647
12743
12868
12934
12970
12988
12965
12907
12761
12654
12455
12474
12528
12525
12442
12299
11789
11390
10993
10771
10634
10587
10591
10677
10856
11073
11359
12217
12588
12821
12903
12886
13029
13101
13064
12956
12810
12500
12244
12040
11878
11718
11677
11829
11840
11927
12082
12188
12305
12342
12395
12488
12541
12571
12715
12737
12714
12631
12560
12513
12479
12475
12447
12300
12226
12294
12284
12375
12332
12197
12102
12050
12000
11942
11875
11635
11574
11580
11588
11538
11555
11603
11642
11700
11784
11839
11975
12115
12237
12286
12264
12414
12465
12532
12535
12510
12518
12616
12721
12835
12973
13172
13404
13387
13358
13321
13180
13010
12666
12413
12230
12076
11974
11928
12011
12054
12097
12006
11618
10658
10147
9645
9357
9259
9375
9641
10073
10618
11159
11905
12180
12417
12674
12826
12816
12776
12829
12921
13043
13117
13085
13070
13064
13060
13097
13199
13221
13302
13304
13138
13149
13171
13096
12948
12791
12557
12181
12078
12001
11996
12111
12030
11787
11434
11009
10635
10182
10059
9995
10104
10402
10718
10994
11190
11315
11477
11657
11884
12331
12547
12767
12904
12925
12910
13141
13279
13293
13273
13250
13211
13140
13090
12991
12929
12863
12831
12738
12642
12523
12384
12214
12166
12153
12026
11909
11983
12053
12083
12039
11928
11873
11974
11989
11968
12000
11990
11915
11867
11878
11882
11945
12016
11971
11830
11671
11553
11462
11344
11356
11449
11478
11498
11851
12155
12431
12600
12735
12838
13102
13256
13357
13462
13543
13484
13471
13373
13263
13143
13013
12571
12380
12182
12086
11937
11485
11159
10937
10663
10350
9869
9873
10037
10313
10673
10941
11230
11621
12023
12018
12000
12027
12078
12338
12639
12914
13142
13288
13382
13281
13182
13181
13137
13010
12987
13088
13194
13268
13360
13430
13396
13315
13097
12855
12611
12179
11975
11905
11946
11889
11431
11094
10704
10346
10009
9793
9553
9623
9877
10265
10698
11093
11366
11581
11847
12348
12570
12778
12908
12987
12995
13037
13062
13126
13259
13544
13568
13472
13327
13189
13120
13283
13401
13413
13302
13117
12713
12485
12197
11834
11473
11205
10813
10840
11015
11299
11674
12330
12571
12724
12643
12221
11620
10567
10161
9824
9720
9915
10405
11025
11564
12337
12562
12734
12912
13040
13161
13184
13288
13320
13283
13222
13277
13296
13305
13257
13122
13085
13144
13158
13101
13083
12887
12835
12787
12661
12374
12084
11673
11502
11461
11533
11596
11828
11883
11840
11789
11588
11165
10106
9596
9108
8681
8431
8322
8391
8651
9150
9904
10880
11886
12811
14511
14857
14842
14821
14821
14826
14526
14413
14301
14135
13983
13739
13594
13326
12993
12632
12322
11715
11574
11503
11425
11391
11380
11373
11342
11350
11272
11073
11037
11051
11117
11326
11587
12163
12273
12400
12498
12568
12579
12598
12653
12783
12905
13010
13254
13409
13633
13815
13784
13320
12960
12585
12215
11921
11303
11015
10858
10818
10736
10479
9700
9268
9074
9156
9519
10138
10851
11425
11888
12248
12974
13264
13539
13740
13853
13826
13824
13809
13741
13506
13215
12691
12688
12590
12431
12221
11961
11862
11810
11733
11636
11655
11752
11877
11983
11909
11760
11744
11895
12102
12237
12211
11999
12054
12113
12088
12019
11967
12095
12130
12128
12197
12379
12545
12584
12661
12708
12664
12585
12607
12665
12736
12754
12739
13062
13343
13584
13728
13939
14248
14070
13687
13294
12835
12459
11942
11610
11149
10578
10032
9020
8554
8204
8184
8253
8314
8439
8628
8924
9368
9899
10574
11345
12092
12858
13658
14631
14806
14814
14691
14552
14428
14306
14102
13887
13642
13396
12923
12824
12748
12762
12678
12454
12315
12098
11978
11891
12028
12286
12634
12832
12925
13011
13263
13342
13409
13280
13038
12413
11958
11554
11241
10991
10733
10585
10468
10232
10035
9839
9711
9606
9518
9693
10052
11051
11423
11757
12177
12729
13457
13789
14052
14126
14056
13703
13458
13317
13234
13151
13050
13014
12962
12765
12473
12156
11527
11293
11055
10763
10415
10197
10561
11063
11459
11667
11876
12653
12963
13289
13585
13834
13965
13905
13790
13638
13436
13255
13074
12934
12745
12408
11870
10475
9715
9092
8720
8661
8807
9028
9395
9956
10682
11298
11852
12352
13235
13385
13502
13702
14042
14307
14232
14090
14055
14049
13967
13494
13179
12922
12676
12532
12199
12193
12346
12631
12870
12943
12430
12121
11808
11547
11237
11140
11388
11674
11888
12006
11954
11412
11144
10999
10910
10656
10157
9934
9662
9443
9581
9988
10578
11221
11947
12536
13293
13428
13421
13354
13319
13225
13225
13103
12883
12656
12522
12454
12502
12604
12770
12957
13427
13580
13796
13934
13926
13884
13677
13441
13141
12831
12532
11874
11539
11249
11003
10696
10195
10021
9952
9981
9945
9793
9726
9970
10436
10868
11298
12049
12319
12377
12373
12420
12511
12770
12954
13134
13284
13439
13600
13600
13598
13606
13608
13552
13287
13202
13106
13045
13004
12867
12741
12609
12329
11890
11444
11378
11437
11493
11692
11822
11732
11639
11543
11494
11430
11416
11482
11493
11428
11312
11137
10735
10651
10742
10971
11250
12209
12692
13006
13137
13093
12963
12610
12322
12061
11943
12237
13183
13423
13508
13616
13678
13554
13416
13325
13327
13336
13188
12594
12240
11908
11694
11501
11044
10844
10612
10366
10169
9962
9901
10153
10404
10787
11279
11754
12274
12772
12716
12627
12610
12672
13045
13147
13213
13216
13124
12996
12675
12517
12494
12610
12816
12980
12834
12589
12312
12077
11579
11347
11035
10595
10148
9770
9665
9907
10463
11860
12442
12905
13307
13686
14138
14158
14003
13838
13662
13298
13043
12865
12855
12879
12829
12390
12074
11742
11376
11035
10456
10428
10439
10490
10578
10681
11019
11295
11586
11955
12258
12658
12777
12845
13003
13180
13333
13478
13451
13348
13239
13075
12841
12680
12514
12400
12391
12429
12375
12284
12127
11915
11577
11121
11200
11393
11627
11844
12167
12362
12610
12781
12832
12817
12717
12609
12638
12748
12773
12607
12423
12106
11764
11470
10808
10470
10250
10040
9806
9797
10110
10591
11577
11871
12007
12149
12509
13292
13415
13332
13082
12849
12719
12710
12813
12921
12949
12951
12726
12569
12455
12457
12318
11910
11661
11469
11304
11176
11257
11781
12115
12385
12545
12700
12884
12887
12871
12782
12546
12343
12009
11867
11789
11732
11665
11759
11852
12081
12343
12552
12643
12603
12523
12509
12539
12560
12328
12076
11788
11493
11173
10774
10749
10794
10959
11150
11417
12171
12634
12998
13343
13634
13934
13851
13752
13773
13910
13882
13476
13340
13196
12941
12528
11674
11053
10483
10019
9690
9594
9762
10205
10720
10703
10713
10776
10849
11124
11390
11790
12292
12768
13066
13345
13395
13393
13391
13418
13464
13390
13293
13226
13117
12974
12557
12430
12344
12308
12272
12255
12203
12111
12045
11957
11853
11844
12001
12097
12100
12049
12008
12087
12196
12221
12133
11841
11818
11886
11992
12017
12050
12264
12238
12068
11781
11439
11164
11171
11071
10941
10879
10922
11406
11796
12119
12397
12707
13091
13225
13360
13470
13516
13426
13320
13239
13190
13190
13135
12941
12862
12675
12419
12158
11828
11713
11594
11462
11348
11351
11623
11730
11789
11751
11658
11338
11174
11090
11080
11181
11282
11575
11721
11889
12051
12124
12212
12277
12366
12446
12452
12684
12881
13098
13386
13668
13800
13392
13135
12887
12696
12595
12712
12747
12731
12623
12411
12088
11415
10939
10329
9710
9318
9146
9222
9564
10084
10646
11557
12007
12410
12599
12653
12732
12875
12970
13037
13011
13072
13158
13229
13228
13212
13177
13322
13305
13272
13225
13137
12840
12690
12607
12604
12556
12443
12082
11913
11782
11593
11348
10907
10920
10940
11016
11201
11431
11834
11983
12134
12245
12390
12480
12401
12366
12258
12156
12010
11957
11957
11984
12019
12010
12048
12098
12197
12312
12450
12537
12627
12744
12821
12785
12730
12675
12588
12436
12300
12281
12484
12563
12532
12440
12320
12262
12281
12321
12348
12369
12339
12126
11962
11845
11718
11500
10643
10299
10168
10322
10615
10936
11422
11720
11987
12133
12251
12427
12349
12229
12254
12425
12831
12896
13073
13254
13248
13126
12847
12736
12644
12600
12594
12474
12384
12370
12376
12296
12120
11834
11785
11814
11759
11644
11630
11757
11881
11982
12121
12243
12294
12397
12439
12476
12477
12471
12460
12385
12271
12099
11616
11482
11556
11763
11975
12276
12552
12621
12538
12472
12435
12339
12286
12187
12039
11951
11820
11759
11914
12139
12284
12361
12636
12793
12841
12803
12790
12514
12298
12022
11823
11647
11505
11612
11720
11757
11836
11867
11852
11782
11726
11634
11523
11473
11513
11776
12065
12318
12508
12738
12732
12701
12640
12595
12547
12428
12284
12310
12304
12241
12151
12169
12265
12506
12741
12765
12656
12446
12324
12274
12291
12323
12321
12378
12402
12324
12013
11685
11439
11238
11161
11235
11452
11465
11443
11535
11691
12055
12231
12300
12387
12460
12463
12426
12357
12306
12289
12305
12559
12604
12483
12331
12208
12083
11937
11867
11934
12030
12184
12479
12515
12470
12482
12421
12318
12366
12378
12452
12492
12462
12463
12614
12705
12621
12387
12019
11808
11649
11585
11568
11510
11577
11626
11736
11909
12027
12024
11914
11733
11683
11779
11762
11829
12001
12153
12293
12430
12548
12579
12638
12703
12714
12650
12622
12599
12580
12519
12393
12405
12424
12448
12491
12474
12388
12344
12266
12107
12002
11853
11858
11949
11994
12006
12018
12029
11887
11638
11383
11197
11252
11513
11721
11907
12090
12317
12299
12277
12290
12350
12454
12577
12548
12509
12388
12325
12298
12270
12260
12275
12249
12191
12075
12020
12068
12087
12079
12039
12077
12097
12176
12301
12409
12560
12516
12420
12308
12157
11788
11807
11924
11945
11918
12062
12103
12109
12220
12346
12442
12449
12403
12393
12387
12383
12268
12172
12071
11985
11925
11920
11930
11916
11934
11996
12095
12271
12337
12374
12388
12319
12305
12289
12265
12243
12287
12341
12386
12359
12320
12295
12252
12175
12161
12124
12048
12083
12014
12023
12068
12102
12114
12119
11965
11930
11976
11958
11812
11645
11754
11920
12077
12327
12444
12486
12515
12481
12498
12556
12584
12540
12544
12489
12493
12414
12085
11921
11704
11512
11390
11352
11315
11328
11434
11611
11754
12151
12267
12351
12390
12435
12487
12489
12431
12367
12380
12402
12430
12424
12422
12445
12510
12457
12402
12348
12330
12280
12266
12279
12268
12258
12200
12110
11910
11908
11922
11971
12088
12288
12306
12287
12185
12101
12033
11993
11986
12016
12090
12112
12251
12205
12170
12183
12217
12105
12002
11951
11926
11994
12085
12192
12214
12211
12152
12102
12075
12094
12091
12055
12009
11998
12057
12112
12249
12400
12500
12525
12488
12459
12445
12460
12463
12355
12263
12201
12173
12212
12153
12057
12032
12036
12035
12143
12118
12073
11996
11932
11932
12099
12114
12104
12093
12110
12200
12234
12179
12110
12019
11885
11951
12086
12216
12325
12395
12193
12041
11970
11957
11997
12332
12409
12471
12473
12391
12277
12160
12129
12105
12147
12167
12086
12040
12107
12199
12251
12265
12306
12346
12386
12404
12391
12312
12316
12263
12115
11994
11445
11261
11306
11449
11635
11843
12239
12336
12378
12413
12505
12517
12471
12546
12585
12561
12512
12375
12314
12266
12227
12161
12029
11966
11990
11980
11897
11749
11787
11871
12020
12164
12230
12252
12287
12328
12321
12367
12440
12433
12357
12273
12235
12220
12205
12196
12187
12145
12163
12120
12018
11916
11887
11929
12001
12156
12285
12365
12350
12298
12322
12271
12096
12000
12001
12057
12091
12093
12094
12075
12040
11948
11932
12043
12189
12309
12266
12183
12115
12154
12149
12153
12221
12212
12208
12225
12291
12253
12247
12189
12089
12075
12212
12308
12308
12260
12283
12257
12245
12212
12160
12072
12093
12190
12252
12218
12213
12237
12188
12034
12084
12095
12048
12106
12244
12322
12438
12477
12454
12261
12204
12043
11906
11903
11883
11827
11759
11841
11874
11944
12076
12098
12067
11969
11995
12049
12179
12279
12367
12333
12265
12250
12204
12268
12376
12389
12358
12274
12352
12385
12393
12387
12404
12356
12276
12277
12255
12162
12164
12192
12134
12084
12097
12023
11934
11891
11937
11937
11981
12025
12104
12167
12175
12192
12255
12310
12380
12436
12447
12379
12373
12276
12196
12111
11862
11828
11857
11961
11948
11867
11774
11866
12017
12160
12332
12335
12206
12150
12182
12180
12182
12367
12392
12376
12313
12261
12242
12284
12375
12364
12302
12253
12392
12336
12234
12187
12231
12015
11927
11922
11977
11992
12026
11962
11789
11807
11936
12059
12269
12401
12403
12368
12413
12383
12284
12220
12226
12179
12044
12042
12065
12032
12007
12082
12176
12212
12301
12384
12417
12357
12376
12315
12281
12288
12219
11816
11766
11829
11879
11844
12075
12101
12174
12237
12239
12242
12289
12396
12393
12361
12237
12119
12100
12017
11946
11865
11716
11783
11905
12002
12111
12234
12309
12341
12331
12346
12365
12311
12330
12315
12270
12267
12267
12204
12188
12224
12256
12204
12080
12085
12103
12095
12130
12179
12112
12148
12184
12273
12331
12311
12237
12172
12135
12127
12085
12029
11975
11994
12013
12038
12075
12073
12095
12162
12200
12183
12149
12129
12131
12179
12222
12247
12250
12208
12181
12228
12215
12160
12197
12253
12251
12278
12270
12236
12198
12214
12232
12220
12234
12270
12283
12281
12233
12254
12258
12275
12310
12309
12266
12247
12200
12058
11930
11861
11729
11555
11533
11603
11693
11971
12123
12157
12195
12258
12367
12375
12378
12364
12334
12111
12103
12133
12182
12229
12226
12169
12176
12212
12228
12266
12295
12269
12273
12380
12358
12274
12189
12172
12173
12236
12262
12110
12069
12051
12047
12034
12006
12010
11942
11860
11927
12054
12192
12237
12274
12267
12229
12220
12254
12250
12250
12292
12320
12286
12323
12266
12217
12199
12212
12179
12145
12168
12199
12204
12129
12115
12139
12093
12095
12213
12240
12230
12223
12199
12146
12196
12183
12149
12158
12118
12095
12105
12133
12125
12123
12132
12132
12147
12143
12170
12216
12127
12109
12113
12144
12133
12183
12204
12220
12228
12228
12209
12259
12271
12242
12257
12338
12388
12369
12339
12304
12262
12213
12200
12138
12044
12004
11940
11680
11610
11665
11735
11801
12010
12130
12220
12263
12312
12318
12390
12402
12354
12305
12345
12334
12315
12284
12317
12318
12339
12276
12198
12086
12062
12102
11919
11783
11792
11880
11962
12118
12153
12201
12221
12258
12263
12269
12295
12305
12303
12279
12306
12356
12385
12380
12369
12261
12237
12160
12077
11976
11930
11982
12000
12052
12097
12049
12070
12083
12098
12102
12132
12144
12197
12283
12305
12291
12269
12352
12331
12281
12308
12342
12340
12353
12391
12409
12372
12295
12115
12006
11840
11780
11797
11903
12029
12165
12233
12181
12027
11660
11577
11669
11783
11880
12058
12058
12124
12094
12101
12168
12331
12362
12362
12348
12332
12375
12392
12315
12260
12252
12246
12245
12298
12338
12343
12312
12254
12240
12297
12359
12411
12353
12316
12306
12285
12318
12305
12231
12260
12312
12319
12286
12187
12172
12170
12125
12070
11786
11624
11672
11770
11873
11967
11951
11901
11850
11732
11591
11570
11788
12015
12222
12301
12409
12496
12516
12503
12524
12463
12401
12398
12373
12311
12263
12283
12257
12216
12226
12187
12139
12172
12172
12211
12248
12268
12268
12215
12119
12099
12072
12062
12092
12075
12050
12044
12053
12188
12201
12135
12089
12011
12019
12033
12036
12065
12066
12096
12208
12187
12151
12140
12210
12250
12314
12333
12297
12279
12294
12254
12234
12235
12204
12188
12128
12172
12160
12154
12112
12042
12081
12071
12094
12179
12203
12199
12213
12202
12158
12187
12240
12268
12253
12251
12326
12338
12307
12296
12306
12290
12296
12292
12330
12411
12498
12520
12471
12394
12302
12261
12152
12089
11913
11792
11711
11733
11794
11704
10988
10820
10921
11123
11250
11637
11818
12086
12336
12477
12576
12681
12754
12770
12759
12717
12719
12694
12677
12622
12604
12656
12594
12471
12334
12321
12346
12141
11978
11740
11417
11250
11445
11677
11871
12032
12152
12206
12210
12270
12346
12381
12376
12341
12327
12324
12294
12318
12353
12372
12365
12277
12233
12229
12205
12160
12183
12187
12163
12079
12016
12010
12028
12038
12067
12128
12154
12189
12238
12251
12098
12144
12160
12152
12135
12197
12237
12260
12261
12229
12185
12132
12150
12154
12130
12154
12143
12126
12099
12075
12137
12153
12174
12173
12196
12205
12188
12161
12151
12153
12153
12153
12205
12276
12280
12261
12234
12225
12273
12222
12165
12221
12201
12108
12061
12018
11967
11992
12054
12124
12120
12113
12102
12116
12116
12187
12202
12151
12240
12345
12386
12413
12478
12491
12435
12257
11971
11661
11415
11308
11390
11610
11923
12210
12372
12460
12626
12641
12711
12781
12729
12540
12405
12362
12284
12150
12073
12047
12020
11992
11942
11822
11680
11614
11513
11482
11430
11450
11602
11867
12098
12246
12336
12411
12434
12452
12482
12473
12440
12312
12172
12085
12090
12135
12261
12326
12426
12463
12414
12354
12386
12411
12450
12493
12404
12462
12500
12500
12457
12369
12148
12040
11961
11923
11926
11751
11728
11754
11833
11870
11900
12153
12173
12259
12440
12584
12652
12739
12849
12873
12875
12960
12811
12663
12584
12551
12543
12199
11843
11579
11459
11250
10844
10748
10728
10857
10894
10896
11149
11333
11441
11637
11910
12224
12338
12475
12603
12680
12810
13033
12982
12955
13034
13139
13171
13028
12764
12481
12106
11614
11663
11723
11800
11884
11957
11945
11999
12188
12344
12428
12342
12206
12118
12100
12081
12121
12167
12213
12206
12090
11976
11978
11993
12026
12067
12124
12239
12291
12330
12301
12246
12211
12158
12190
12230
12281
12364
12444
12443
12453
12446
12426
12435
12501
12425
12424
12444
12451
12310
12274
12190
12053
11970
11952
11734
11649
11676
11685
11695
11859
11919
12014
12087
12066
11993
11904
11810
11761
11792
11893
12257
12359
12379
12358
12351
12393
12416
12412
12386
12355
12349
12399
12395
12346
12341
12400
12349
12237
12154
12066
12040
12181
12116
12128
12109
12153
12169
12318
12396
12429
12545
12681
12752
12624
12497
12262
11928
11653
11422
11554
11710
11730
11725
11764
11765
11727
11763
11857
12018
12448
12578
12612
12625
12612
12564
12616
12622
12642
12742
12718
12526
12374
12243
12040
11839
11576
11285
11012
10856
10792
10821
10983
11321
11676
12003
12293
12785
12825
12804
12756
12716
12627
12700
12790
12752
12648
12746
12752
12713
12725
12648
12489
12274
12231
12195
12133
12050
11881
11766
11707
11709
11778
11739
11556
11485
11375
11312
11408
11560
11610
11696
11875
12020
12164
12607
12737
12788
12832
12860
12781
12758
12829
12904
12863
12594
12423
12202
11944
11803
11672
11565
11643
11664
11674
11681
11954
12140
12258
12281
12370
12484
12446
12450
12489
12495
12490
12493
12482
12451
12434
12393
12118
12172
12315
12395
12466
12568
12688
12631
12572
12549
12545
12330
12115
11942
11679
11371
11199
11176
11113
11125
11208
11225
11277
11438
11703
11886
12123
12506
12571
12593
12634
12706
12756
12749
12802
12758
12668
12623
12513
12440
12369
12417
12329
12130
12104
12170
12173
12053
11977
11730
11690
11803
11985
12064
12122
12278
12330
12288
12251
12188
12065
12174
12499
12756
12860
12982
13008
12917
12878
13005
13109
12788
12677
12636
12661
12755
12917
12687
12342
11982
11647
11316
10704
10591
10476
10334
10246
10292
10311
10257
10270
10404
10991
11298
11534
11708
11791
11732
11746
11819
11963
12249
12565
12942
13106
13322
13391
13450
13507
13456
13317
13218
13176
13093
12946
12976
12997
12919
12833
12829
12899
12839
12786
12780
12687
12408
12296
12024
11802
11691
11604
11487
11371
11370
11373
11359
11687
11856
11936
11926
11936
12052
12069
12008
11885
11687
11467
11406
11467
11506
11565
11675
11866
11957
12102
12273
12358
12588
12712
12793
12893
13046
13204
13320
13226
13118
12944
12820
12607
12725
12783
12687
12500
12215
11824
11684
11569
11444
11291
10987
11000
11054
11101
11185
11332
11732
11811
11943
12105
12182
12245
12280
12279
12334
12450
12709
12782
12817
12938
13034
13076
13173
13277
13330
13347
13400
13428
13200
12929
12680
12418
12081
11776
11691
11590
11422
11274
11036
10723
10342
10156
10105
9970
10191
10574
10910
11234
11601
11979
12372
12594
12959
13310
13690
14266
14373
14253
14148
14071
13990
13841
13579
13157
12645
12147
11135
10538
10090
9690
9506
9524
9595
9873
10241
10670
10972
10968
11090
11224
11370
11927
12291
12486
12521
12506
12450
12499
12693
12927
13054
13078
13090
13167
13199
13180
13225
13311
13441
13379
13374
13347
13217
13053
13067
13054
13030
13052
12932
12808
12651
12430
12197
12021
11501
11310
11163
11002
10936
10942
10979
10989
11037
10982
11000
10981
11037
11032
11077
11157
11590
11896
12178
12465
12800
13051
13265
13368
13383
13355
13344
13338
13283
13353
13509
13613
13569
13600
13555
13319
12903
12367
11566
11361
11286
11200
11182
10999
10752
10436
10142
9990
9921
9895
9953
10156
10702
11061
11352
11628
12038
12512
13253
13522
13782
13984
14030
14007
13842
13710
13617
13534
13492
13401
13359
13393
13326
13154
12606
12351
11953
11406
11028
10407
10152
9917
9871
9892
10021
10337
10731
11059
11315
11377
11455
11704
11907
12429
12681
12773
12907
13217
13709
13706
13702
13686
13664
13609
13426
13249
13118
12987
12889
12607
12421
12110
11686
11111
10548
9560
9283
9118
9229
9683
10283
10889
11365
11678
11931
12800
13101
13378
13545
13590
13500
13432
13203
12933
12808
12606
12465
12330
12232
12141
12076
12151
12252
12396
12545
12841
13359
13332
13348
13439
13406
13273
13041
13020
13018
12985
12983
12998
12901
12727
12509
12234
11647
11269
10781
10312
9819
9238
8648
8174
7857
7853
8146
8725
9590
10550
11750
11888
11917
12013
12181
12338
12951
13275
13466
13568
13668
14010
14035
14011
13974
13913
13624
13472
13294
13147
13008
12927
12674
12602
12593
12595
12558
12195
11888
11611
11411
11335
11418
11756
11881
11967
12119
12271
12447
12459
12421
12326
12282
12163
12171
12172
12131
12068
12062
12099
12262
12443
12580
12675
12730
12851
12943
12948
12868
12773
12483
12234
12030
11798
11521
11343
11600
11935
12194
12550
12800
12400
11907
11317
10719
10164
9734
9978
10371
10853
11371
11831
12148
12082
11984
11842
11671
11480
11261
10938
10903
10971
11187
11520
12262
12614
12989
13368
13553
13455
13391
13341
13294
13182
13068
12831
12888
13130
13379
13441
13213
13121
13133
13147
13046
12888
12599
12397
12205
11996
11795
11761
11813
11893
12022
12054
11833
11652
11427
11193
11136
11325
11944
12357
12706
12817
12743
12342
12221
12236
12246
12236
12330
12970
13110
13161
13267
13305
13139
12736
12191
11548
10921
10435
9835
9669
9750
10148
10817
11435
11801
11942
11585
11223
10848
10369
9973
9814
9932
10260
11504
12225
12811
13213
13557
14104
14263
14354
14409
14354
14304
14236
14193
13917
13508
13137
12768
12704
12667
12761
12922
12965
12878
12639
12397
12029
11540
10670
10418
10296
10253
10271
10440
10574
10715
10821
10971
11270
12180
12466
12512
12474
12332
12307
12262
12252
12271
12255
12265
12255
12176
11987
11757
11666
11842
12169
12530
12785
12909
13322
13474
13499
13455
13377
13181
12832
12585
12413
12282
12170
12023
11925
11675
11310
10994
10873
11037
11285
11535
11787
12036
12481
12815
13081
13112
13057
13005
13219
13341
13426
13329
13025
12428
12564
12816
12875
12756
12306
12132
12109
12241
12236
12099
11929
11866
11629
11356
11275
11309
11458
11794
12178
12508
12587
11918
11524
11257
11173
11226
11848
12219
12459
12461
12127
11288
11106
10953
10858
10953
11175
11315
11127
10924
10693
10609
10720
10981
11190
11298
11335
11407
11576
11868
12374
12887
13293
13773
13952
13995
13936
13895
13827
13887
13910
13920
13832
13622
13035
12681
12370
11990
11714
11511
11503
11521
11631
11787
12012
12381
12517
12725
12847
12879
12657
12543
12459
12478
12530
12578
12589
12462
12215
11754
11115
10482
10458
10539
10838
11240
12026
12226
12211
12135
12091
12229
12869
13091
13086
13041
13000
13037
12983
12884
12638
12399
12273
12221
12217
12299
12256
12167
11920
11746
11548
11355
11213
11194
11248
11376
11679
12014
12217
12679
13079
13350
13461
13590
13642
13563
13494
13424
13206
12952
12621
12443
12246
12041
11776
11035
10731
10474
10256
10114
9879
9642
9517
9173
8786
8757
9286
10211
11308
12350
13162
13634
14129
14280
14359
14324
14402
14533
14045
13657
13251
12785
12182
11291
11025
10713
10422
10220
9981
9817
10338
10954
11402
11822
12241
12664
13354
13800
14205
14505
14732
14934
15061
15019
14805
14486
14167
13312
12923
12573
12163
11593
10215
9447
8750
8117
7522
7337
7543
8031
8865
9940
10882
11561
12216
12871
13872
14257
14466
14548
14459
14410
14233
14019
13781
13545
13206
12196
11649
11277
11097
11068
11417
11603
11749
11995
12289
12969
13267
13551
13710
13659
13465
13144
13005
12935
12799
12554
11994
11667
11370
11016
10630
10210
9557
9495
9728
10089
10540
10997
11389
11892
13265
13777
14130
14407
14753
14726
14388
14063
13802
13610
13421
12938
12691
12274
11831
11318
10190
9744
9402
9195
9155
9226
9453
9850
10329
10872
11469
12112
12871
13118
13308
13311
13325
13169
13045
12887
12731
12683
12685
12315
11991
11656
11308
10818
10315
10541
10994
11679
12299
12792
13026
12968
12896
12963
13036
13091
13057
13017
12938
12979
13346
13377
13399
13429
13336
13051
12354
12157
12095
12047
12032
11876
11612
11505
11480
11606
11618
11261
11111
10967
10876
10970
11114
11103
11239
11437
11517
11930
12355
12790
13080
13182
13191
13205
13170
13023
12904
12833
12628
12434
12218
12082
12009
12026
12217
12068
11879
11708
11536
10813
10364
10013
9901
9950
10348
10995
12728
13449
13923
14062
14020
13909
13564
13317
13079
12928
12917
12703
12583
12519
12480
12479
12412
12016
11537
11115
10764
10517
10657
11078
11530
11958
12192
12483
12537
12526
12481
12414
12401
12521
12761
12914
12916
12789
12560
12542
12528
12458
12376
12369
12524
12494
12450
12338
12079
11129
10630
10261
9935
9836
10067
10501
11236
11569
11881
12164
12459
12754
13287
13535
13916
14187
14301
14004
13863
13719
13464
13139
12827
12037
11715
11473
11392
11382
11360
11346
11287
11290
11244
10979
10931
10937
10971
11206
11587
12131
12297
12616
12966
13190
13171
13006
12821
12786
12907
13047
13154
13226
13232
13145
12972
12297
12013
11725
11474
11157
10828
10464
10520
10743
11113
11450
11993
12053
12046
12100
12230
12486
12559
12561
12466
12385
12323
12158
12040
12034
12113
12240
12309
12309
12340
12302
12194
12076
11947
11850
11822
11801
11854
12164
12390
12526
12670
12733
12888
12806
12691
12585
12538
12476
12118
11991
12000
12260
12636
13038
13010
12964
12844
12660
12339
11867
11765
11688
11505
11330
11173
11116
11073
11065
11125
11078
11048
11104
11336
11648
12033
12772
13021
13282
13564
13839
13976
13778
13585
13331
13012
12706
12419
12319
12194
12145
12069
11703
11342
10961
10617
10387
10303
10612
10735
10918
11247
11771
12414
12587
12730
12798
12820
12653
12520
12485
12526
12692
12846
12871
12927
12931
12732
12259
11156
10745
10382
10107
10053
10309
11357
11804
12298
12771
13146
13724
13881
13997
13980
13910
13713
13447
13102
12788
12515
12202
11807
11849
11899
11976
12021
11828
11718
11533
11306
11217
11235
11682
12057
12401
12552
12679
12970
12962
12898
12731
12574
12463
12140
11929
11718
11435
11078
10724
10724
10796
10999
11238
11816
12283
12683
12880
12896
12860
12783
12710
12647
12618
12580
12572
12831
13207
13412
13334
13139
12621
12330
12034
11771
11527
11267
11337
11448
11506
11532
11679
11532
11240
10977
10944
11054
11349
11519
11771
12073
12371
12647
12710
12746
12615
12465
12455
12709
12854
12827
12768
12668
12621
12726
12823
12744
12500
11774
11421
11214
11200
11277
11423
12143
12211
12072
11896
11898
12094
12175
12252
12276
12278
12380
12701
12888
12926
12960
13193
13639
13642
13684
13726
13680
13573
13449
13332
13024
12480
11822
10526
10183
10179
10246
10216
9767
9792
10050
10483
11014
11551
12131
12582
13078
13078
12958
12739
12516
11909
11498
11163
10931
10805
11341
11864
12330
12598
12660
12666
12221
12018
11990
12145
12346
12774
12860
12861
12825
12816
12808
12725
12570
12377
12317
12198
12017
11991
11974
11965
12011
12099
12492
12717
12785
12812
12843
13081
13095
13022
12928
12712
12137
11999
11899
11806
11679
11600
11646
11752
11885
12091
12269
12318
12414
12511
12499
12482
12506
12431
12274
12134
11986
11811
11723
12033
12225
12123
12092
12528
12854
13062
13055
12853
12596
12293
12115
11867
11605
11319
10642
10363
10040
9792
9823
10042
10479
11022
12157
12604
12885
13109
13308
13398
13310
13194
13068
13028
12852
12650
12467
12358
12257
12041
11765
11771
12091
12524
12761
12992
12980
12955
12898
12692
12352
11628
11144
10484
10097
10273
11080
11540
12032
12438
12830
13182
13161
13037
12834
12734
12722
12395
12026
11736
11542
11491
11336
11306
11295
11372
11462
11576
11750
11569
11452
11555
11849
12552
12751
12772
12757
12770
12714
12748
12826
12900
12935
12973
12965
12808
12682
12654
12548
11860
11535
11289
11177
11267
11495
11941
12132
12364
12495
12588
12777
12815
12728
12581
12481
12386
12073
12049
12131
12198
12258
12296
12291
12197
12092
12009
11789
11797
11785
11765
11838
11964
12149
12204
12345
12528
12619
12700
12726
12713
12620
12468
12288
12221
12322
12438
12504
12554
12557
12529
12342
12100
11756
11070
11017
11103
11166
11307
11478
11619
11626
11692
11814
11968
12401
12556
12611
12520
12505
12526
12438
12333
12183
11897
11590
11854
12049
12136
12174
12228
12298
12343
12478
12610
12669
12620
12304
12070
11807
11649
11762
12490
12988
13260
13335
13224
12942
11700
11292
11273
11532
11767
11957
12162
12285
12212
11933
11587
11288
11325
11577
11921
12138
12441
12521
12506
12326
11921
11419
11436
11633
11997
12408
12655
12874
12865
12782
12709
12658
12618
12722
12888
13031
12899
12747
12473
12431
12388
12313
12235
12097
12092
11924
11760
11577
11501
11744
11959
12142
12255
12384
12307
12218
12240
12163
11977
11592
11659
11718
11721
11774
11954
12219
12206
12217
12195
12092
11771
11716
11701
11703
11865
12113
12372
12376
12421
12402
12328
12491
12664
12647
12560
12481
12493
12473
12431
12348
12278
12205
12225
12315
12430
12561
12583
12276
12187
12103
12105
12124
12099
11979
11960
11829
11716
11620
11712
11840
11883
11939
12021
12067
12019
11920
11731
11573
11458
11599
11863
12069
12208
12407
12612
12664
12680
12666
12731
12803
12612
12594
12645
12669
12699
12515
12388
12165
11828
11563
11458
11557
11593
11595
11636
11758
12192
12298
12383
12483
12577
12495
12436
12423
12310
12240
12284
12396
12391
12489
12640
12741
12390
12057
11729
11409
11253
11272
11855
12079
12250
12229
12035
11852
12007
12010
11822
11534
11540
11742
12053
12358
12577
12759
12960
12926
12872
12738
12580
12309
12251
12115
11950
11848
11830
12176
12227
12213
12137
12100
12244
12278
12356
12402
12393
12378
12268
12176
12055
11895
11839
11727
11801
11913
12063
12078
12139
12253
12305
12307
12294
12301
12353
12326
12278
12210
12162
12013
12076
12223
12222
12226
12239
12299
12354
12382
12351
12274
12163
12083
12015
12047
12068
12209
12228
12301
12346
12355
12324
12275
12218
12164
12135
12114
11809
11554
11548
11702
11868
11971
12091
11988
11912
11909
11886
12060
12224
12320
12318
12412
12543
12495
12415
12374
12333
12324
12382
12446
12415
12399
12405
12355
12323
12332
12377
12428
12400
12358
12406
12379
12257
11895
10965
10862
11064
11319
11457
11483
11571
11726
11965
12162
12299
12494
12503
12465
12472
12461
12497
12536
12501
12491
12468
12506
12534
12532
12532
12534
12494
12354
12372
12285
12176
12219
12269
12067
11894
11808
11796
11889
12047
12131
12162
12118
12105
11932
11961
11941
11987
12073
12150
12223
12312
12344
12361
12379
12337
12394
12448
12422
12368
12408
12360
12330
12250
12144
11901
11371
11251
11326
11536
11762
11940
12186
12210
12267
12347
12327
12308
12329
12404
12419
12364
12266
12201
12107
12061
12037
12066
12161
12265
12331
12338
12365
12271
12292
12234
12228
12263
12296
12312
12269
12148
12135
12129
12169
12224
12220
12230
12279
12174
12078
12000
11983
11981
12040
12168
12120
12023
11926
11794
11661
11697
11755
11829
11953
12065
12463
12533
12520
12472
12533
12561
12448
12320
12107
11949
11851
11914
12054
12126
12073
12017
12097
12166
12256
12316
12362
12314
12337
12353
12347
12258
12085
12138
12213
12272
12225
12154
11997
11956
12068
12152
12182
12135
12008
11989
12014
12030
12029
12117
12137
12231
12319
12294
12353
12362
12424
12392
12324
12262
12258
12270
12273
12153
11992
11910
11945
11985
12108
12153
12182
12226
12238
12226
12193
12190
12094
12073
12026
12039
11982
12053
12067
12075
12132
12142
12143
12187
12194
12171
12151
12095
12226
12267
12261
12237
12241
12293
12344
12286
12271
12275
12267
12344
12427
12385
12301
12226
12124
11955
11929
11917
11861
11845
12017
12146
12215
12231
12252
12183
12165
12164
12164
12192
12241
12338
12309
12300
12291
12272
12145
12136
12140
12051
12091
12112
12106
12154
12211
12197
12187
12148
12230
12254
12255
12289
12333
12292
12260
12309
12317
12299
12034
11850
11694
11741
11876
12140
12106
12055
11999
11978
11960
12073
12133
12139
12189
12215
12245
12242
12279
12265
12220
12167
12222
12229
12215
12182
12242
12274
12301
12281
12266
12244
12386
12408
12356
12388
12377
12354
12312
12297
12238
12273
12280
12036
11931
11777
11702
11815
11963
11811
11649
11541
11684
11882
12122
12183
12234
12238
12227
12338
12376
12353
12406
12371
12370
12295
12209
12262
12284
12264
12229
12226
12178
12131
12189
12197
12066
12074
12057
12137
12166
12272
12226
12133
12043
12046
12113
12097
12137
12224
12285
12267
12302
12311
12288
12257
12243
12191
12147
12142
12122
12066
12075
11987
11964
11940
11944
11989
12132
12171
12203
12192
12145
12158
12227
12217
12232
12259
12291
12223
12213
12245
12235
12218
12169
12121
12123
12126
12123
12107
12080
12107
12103
12111
12118
12182
12176
12193
12237
12190
12164
12235
12276
12289
12305
12300
12351
12292
12256
12254
12183
12149
12111
12071
12066
12099
12115
11883
11758
11696
11744
11819
12102
12204
12263
12231
12203
12167
12167
12191
12215
12211
12293
12328
12276
12234
12268
12285
12269
12225
12195
12162
12141
12173
12243
12219
12179
12205
12183
12147
12286
12265
12223
12191
12149
12078
12105
12073
11963
11952
12020
12127
12172
12201
12233
12241
12266
12217
12211
12180
12130
11975
12016
12036
12065
12125
12139
12177
12205
12254
12225
12206
12168
12199
12237
12186
12162
12293
12328
12300
12276
12222
12181
12230
12195
12173
12194
12215
12175
12172
12068
12046
12060
12048
12069
12136
12165
12175
12201
12105
12136
12134
12162
12208
12298
12242
12264
12209
12213
12191
12210
12196
12166
12138
12117
12124
12080
12049
12076
12051
12014
12132
12148
12191
12231
12221
12143
12173
12200
12232
12247
12276
12290
12249
12170
12104
12116
12204
12196
12215
12120
12106
12040
12075
12069
12011
12109
12137
12105
12157
12174
12187
12150
12146
12162
12131
12130
12196
12178
12254
12296
12246
12200
12208
12228
12234
12246
12208
12140
12140
12112
12115
12115
12139
12095
12134
12183
12194
12222
12226
12198
12110
12141
12203
12205
12199
12185
12159
12136
12158
12157
12247
12226
12189
12229
12206
12230
12208
12201
12182
12116
12142
12050
12045
12076
12055
12092
12024
12043
12051
12050
12063
12084
12182
12257
12279
12244
12208
12061
12077
12114
12151
12164
12148
12068
12024
12066
12101
12136
12124
12136
12228
12337
12359
12238
12170
12128
12172
12194
12206
12259
12256
12275
12259
12243
12178
12170
12184
12214
12191
12154
12144
12127
12126
12151
12069
12134
12090
12090
12150
12174
12193
12167
12169
12174
12158
12161
12200
12242
12245
12257
12321
12162
12094
12054
12061
12096
12099
12096
12123
12154
12150
12106
12051
12082
12082
12104
12162
12211
12195
12209
12170
12109
12137
12183
12193
12247
12229
12225
12246
12240
12232
12201
12162
12158
12134
12130
12136
12122
12062
12079
12093
12120
12095
12149
12212
12162
12200
12181
12149
12146
12196
12187
12248
12250
12241
12217
12218
12223
12210
12199
12179
12067
12105
12092
12135
12199
12038
12030
12066
12111
12156
12164
12199
12223
12206
12172
12179
12154
12127
12117
12202
12253
12224
12235
12199
12160
12199
12164
12180
12107
12128
12176
12159
12107
12088
12110
12120
12125
12157
12138
12149
12139
12139
12160
12180
12183
12180
12216
12191
12281
12254
12241
12224
12202
12198
12211
12176
12131
12150
12143
12009
12033
12105
12134
12125
12154
12204
12199
12164
12134
12104
12209
12205
12218
12227
12261
12230
12220
12209
12182
12211
12200
12178
12173
12215
12167
12165
12089
12094
12088
12053
12059
12071
12167
12159
12186
12186
12149
12131
12209
12239
12200
12191
12252
12231
12202
12195
12172
12166
12201
12185
12176
12211
12212
12150
12053
12100
12094
12110
12103
12122
12179
12201
12178
12136
12106
12191
12236
12219
12206
12176
12226
12207
12224
12223
12222
12139
12142
12115
12167
12223
12158
12107
12049
12096
12125
12092
12139
12189
12207
12202
12207
12106
12159
12168
12178
12216
12199
12253
12257
12238
12194
12176
12175
12182
12151
12100
12126
12130
12130
12073
12079
12062
12038
12139
12191
12211
12180
12188
12172
12186
12208
12164
12170
12234
12301
12216
12189
12190
12197
12223
12151
12092
12071
12092
12121
12142
12059
12042
12107
12124
12155
12160
12154
12122
12138
12122
12149
12169
12189
12169
12171
12301
12260
12238
12258
12237
12214
12191
12195
12145
12080
12110
12181
12146
12062
12039
12117
12062
12080
12129
12156
12181
12185
12158
12176
12150
12136
12217
12261
12206
12160
12164
12226
12226
12230
12279
12217
12219
12171
12225
12202
12155
12161
12131
12161
12168
12224
12188
12194
12184
12019
11989
11977
12011
12010
12128
12141
12143
12098
12102
12126
12184
12192
12167
12156
12161
12263
12249
12199
12193
12237
12170
12176
12234
12220
12192
12209
12195
12162
12144
12134
12157
12133
12174
12139
12168
12238
12254
12196
12186
12186
12169
12127
12186
12230
12201
12116
12141
12122
12128
12193
12276
12273
12268
12307
12261
12196
12195
12190
12213
12189
12168
12162
12183
12239
12221
12147
12069
12058
12009
11863
11831
11819
11818
11842
11976
12029
12069
12138
12255
12284
12264
12213
12269
12360
12350
12305
12331
12315
12291
12304
12246
12248
12229
12209
12167
12160
12140
12111
12108
12155
12117
12107
12097
12069
12147
12218
12224
12167
12137
12147
12147
12207
12259
12292
12299
12244
12230
12263
12250
12193
12191
12190
12108
12112
12180
12175
12199
12105
12060
12151
12112
12087
12135
12183
12277
12259
12156
12137
12147
12263
12244
12220
12246
12250
12255
12217
12180
12168
12138
12103
12016
11996
12042
12082
12075
11984
12016
11964
11968
12062
12079
12153
12191
12174
12128
12126
12208
12229
12260
12273
12296
12244
12222
12207
12177
12166
12172
12118
12096
12182
12191
12162
12100
12090
12093
12037
12066
12164
12197
12242
12210
12134
12101
12160
12165
12186
12234
12262
12278
12250
12228
12167
12163
12191
12104
12146
12172
12126
12083
12169
12135
12143
12088
12096
12102
12188
12176
12182
12163
12160
12189
12202
12223
12240
12257
12275
12254
12236
12223
12211
12199
12160
12091
12118
12149
12169
12144
12112
12099
12093
12050
12037
12175
12191
12201
12182
12103
12067
12159
12151
12214
12222
12234
12261
12229
12205
12145
12151
12227
12151
12149
12162
12172
12149
12129
12142
12107
12066
12063
12141
12149
12162
12157
12152
12145
12225
12237
12177
12228
12275
12229
12201
12192
12168
12222
12244
12172
12118
12121
12120
12116
12104
12117
12120
12039
12040
12080
12095
12211
12223
12182
12120
12127
12180
12217
12255
12265
12203
12241
12233
12192
12160
12177
12150
12180
12136
12156
12159
12165
12151
12184
12145
12107
12108
12139
12179
12197
12169
12155
12148
12169
12218
12197
12233
12203
12196
12273
12214
12174
12224
12172
12189
12216
12180
12129
12175
12100
12093
12081
12043
12051
12156
12189
12236
12230
12182
12194
12214
12200
12171
12170
12231
12174
12161
12158
12225
12243
12184
12179
12160
12166
12176
12149
12109
12064
12069
12090
12089
12122
12178
12205
12202
12196
12075
12133
12217
12201
12137
12259
12241
12204
12188
12240
12238
12196
12173
12131
12099
12142
12174
12141
12094
12125
12118
12084
12120
12150
12153
12186
12175
12083
12049
12120
12181
12187
12228
12283
12261
12220
12189
12171
12233
12185
12183
12154
12165
12151
12126
12101
12029
12064
12089
12060
12103
12123
12171
12173
12168
12200
12205
12172
12256
12280
12244
12243
12217
12196
12198
12201
12199
12188
12166
12110
12140
12159
12155
12081
12104
12081
12098
12131
12169
12237
12241
12201
12199
12230
12215
12190
12188
12222
12223
12245
12248
12238
12180
12207
12230
12144
12140
12119
12096
12120
12072
12080
12151
12132
12132
12165
12195
12195
12147
12109
12160
12195
12176
12161
12216
12230
12251
12196
12248
12172
12176
12170
12157
12135
12137
12123
12096
12126
12088
12050
12118
12120
12105
12131
12132
12177
12147
12172
12203
12191
12187
12216
12233
12267
12247
12280
12260
12203
12171
12164
12137
12112
12112
12144
12152
12142
12128
12074
12118
12138
12144
12178
12172
12183
12109
12140
12237
12221
12162
12218
12259
12214
12178
12211
12220
12178
12186
12171
12105
12123
12139
12152
12122
12118
12058
12039
12036
12081
12116
12187
12179
12164
12138
12190
12191
12141
12183
12203
12213
12213
12233
12234
12219
12236
12204
12133
12152
12143
12141
12134
12122
12085
12042
12068
12087
12126
12161
12204
12200
12167
12171
12210
12240
12244
12232
12192
12195
12210
12227
12181
12194
12179
12132
12133
12162
12167
12151
12183
12125
12136
12043
12025
12101
12151
12167
12181
12107
12069
12101
12231
12219
12266
12293
12302
12221
12248
12198
12190
12179
12197
12182
12159
12144
12138
12144
12096
12066
12051
11999
12045
12121
12138
12159
12129
12126
12125
12224
12222
12194
12239
12258
12235
12258
12258
12215
12219
12188
12137
12152
12208
12177
12146
12033
12039
12057
11998
12082
12136
12167
12179
12196
12189
12139
12181
12224
12230
12218
12240
12269
12196
12236
12224
12224
12211
12135
12121
12134
12157
12159
12177
12133
12112
12084
12093
12114
12214
12225
12199
12147
12101
12184
12172
12170
12207
12204
12213
12205
12239
12238
12214
12204
12186
12152
12181
12174
12126
12124
12036
12047
12049
12067
12077
12167
12138
12181
12170
12128
12125
12174
12229
12222
12259
12271
12280
12235
12246
12279
12231
12178
12206
12155
12141
12155
12153
12055
12007
12026
12106
12097
12146
12181
12162
12159
12126
12098
12125
12127
12149
12201
12206
12260
12296
12270
12206
12201
12200
12155
12108
12078
12135
12184
12169
12102
12078
12078
12075
12135
12165
12190
12182
12139
12090
12128
12163
12197
12229
12262
12238
12258
12305
12223
12209
12197
12169
12159
12144
12171
12152
12120
12092
12109
12134
12093
12149
12170
12178
12179
12184
12143
12176
12155
12179
12187
12229
12217
12189
12189
12269
12259
12192
12173
12169
12167
12202
12146
12122
12079
12065
12073
12090
12028
12128
12161
12197
12217
12213
12148
12162
12173
12187
12191
12264
12223
12206
12270
12288
12242
12219
12171
12165
12167
12143
12134
12139
12070
12080
12127
12075
12061
12135
12150
12147
12145
12149
12130
12128
12151
12128
12150
12242
12277
12187
12188
12201
12202
12201
12205
12149
12140
12184
12166
12143
12141
12108
12074
12073
12146
12188
12214
12210
12094
12043
12079
12160
12195
12258
12254
12252
12193
12195
12174
12220
12242
12215
12126
12141
12210
12197
12130
12077
12064
12028
12068
12123
12178
12215
12207
12176
12117
12108
12163
12224
12222
12199
12266
12236
12206
12201
12164
12184
12204
12158
12169
12101
12117
12180
12165
12105
12120
12066
12037
12102
12147
12192
12177
12133
12139
12189
12208
12170
12214
12263
12268
12237
12222
12145
12182
12220
12204
12154
12161
12163
12150
12115
12053
12084
12041
12054
12111
12151
12166
12208
12132
12108
12158
12157
12203
12254
12247
12234
12176
12206
12211
12145
12162
12180
12184
12137
12153
12170
12126
12095
12126
12135
12103
12128
12181
12186
12179
12172
12173
12213
12214
12190
12203
12223
12215
12239
12234
12183
12177
12191
12179
12128
12078
12131
12159
12173
12131
12117
12103
12087
12112
12142
12202
12166
12149
12105
12138
12213
12218
12208
12224
12224
12234
12241
12187
12198
12182
12168
12143
12122
12123
12121
12128
12110
12072
12109
12071
12095
12101
12165
12191
12174
12158
12157
12184
12186
12180
12216
12237
12280
12247
12254
12228
12198
12206
12214
12241
12114
12104
12106
12092
12106
12125
12104
12108
12077
12115
12187
12199
12160
12117
12174
12148
12185
12208
12230
12236
12243
12266
12266
12240
12197
12170
12144
12120
12139
12139
12121
12132
12075
12022
12090
12149
12160
12184
12202
12209
12175
12181
12210
12204
12199
12235
12187
12232
12237
12209
12184
12176
12170
12146
12158
12139
12154
12145
12111
12050
12107
12052
12079
12142
12166
12171
12183
12159
12132
12145
12208
12193
12180
12189
12232
12211
12243
12222
12205
12168
12197
12159
12167
12192
12179
12158
12053
12100
12133
12124
12047
12105
12163
12185
12189
12156
12091
12121
12195
12215
12234
12250
12256
12223
12258
12239
12208
12187
12167
12157
12168
12182
12144
12136
12055
12043
12083
12088
12118
12180
12179
12200
12195
12151
12141
12179
12189
12176
12237
12236
12217
12237
12214
12226
12189
12160
12156
12098
12140
12176
12139
12068
12084
12106
12096
12086
12138
12187
12203
12202
12149
12112
12195
12214
12212
12224
12231
12233
12188
12213
12276
12247
12170
12160
12152
12105
12136
12156
12051
12047
12065
12086
12069
12139
12136
12190
12194
12176
12154
12214
12188
12194
12156
12182
12248
12232
12237
12207
12171
12186
12162
12104
12109
12161
12079
12101
12050
12089
12105
12102
12160
12153
12178
12203
12186
12141
12138
12166
12179
12176
12270
12280
12254
12218
12221
12250
12159
12158
12106
12092
12156
12145
12110
12092
12134
12153
12129
12101
12173
12195
12217
12220
12137
12101
12129
12192
12208
12209
12233
12270
12242
12244
12218
12160
12176
12148
12134
12145
12121
12154
12129
12069
12121
12155
12038
12141
12187
12191
12189
12164
12107
12161
12223
12253
12203
12252
12243
12255
12260
12232
12180
12149
12108
12139
12133
12176
12168
12156
12112
12092
12078
12081
12071
