12261
12136
11947
11810
11815
11913
12028
12161
12243
12184
12085
11988
11898
11780
11709
11902
12036
12107
12215
12347
12580
12636
12666
12656
12580
12368
12223
12157
12129
12053
11942
11701
11608
11597
11601
11584
11622
11614
11660
11752
11836
11868
12021
12144
12320
12500
12633
12740
12811
12828
12769
12663
12391
12218
12057
11966
11983
12010
12064
12142
12215
12240
12233
12290
12295
12369
12533
12645
12674
12454
12345
12204
12022
11815
11393
11279
11210
11195
11253
11527
11614
11624
11576
11594
11730
12079
12176
12293
12428
12595
12806
12806
12763
12664
12545
12420
12205
12187
12266
12420
12436
12082
11923
11832
11874
12019
12175
12594
12668
12678
12680
12675
12550
12462
12421
12409
12337
12010
11799
11589
11449
11391
11381
11426
11473
11545
11602
11638
11676
11644
11619
11641
11756
11841
11971
12044
12176
12318
12444
12643
12635
12711
12781
12811
12900
12929
12927
12856
12753
12697
12321
12012
11745
11622
11595
11708
11631
11524
11511
11619
11817
12119
12103
12009
12016
12195
12431
12437
12408
12359
12251
12105
11876
11744
11525
11162
10794
10405
10493
10708
11007
11291
11742
12044
12362
12607
12764
12871
12953
12955
12952
12955
12905
12746
12716
12636
12511
12444
12430
12438
12393
12305
12214
12175
12277
12404
12511
12596
12630
12614
12541
12427
12354
12300
12195
11973
11939
11931
11860
11736
11771
11850
11935
11968
11947
11935
11995
12049
12154
12272
12403
12481
12397
12306
12207
12076
11994
11966
11991
11985
11935
11878
11738
11658
11648
11664
11658
11708
11727
11732
11752
11814
11929
12181
12329
12443
12503
12542
12478
12461
12472
12531
12592
12625
12538
12439
12343
12230
12161
12041
12059
12071
12020
11888
11543
11452
11466
11534
11663
11809
12070
12220
12378
12552
12722
12934
12951
12912
12846
12794
12757
12568
12430
12231
11999
11753
11524
11619
11800
11933
11988
12274
12346
12287
12113
11889
11661
11396
11412
11513
11638
11703
11643
11586
11528
11412
11326
11407
11743
11790
11837
11944
12081
12251
12344
12487
12660
12772
12862
12969
12986
12981
12966
12972
12992
12945
12850
12762
12684
12543
12576
12530
12334
12035
11742
11425
11299
11219
11216
11290
11488
11502
11513
11503
11479
11503
11677
11726
11743
11793
11886
12183
12354
12590
12869
13053
13187
13250
13312
13333
13286
13187
12838
12578
12225
11798
11387
10746
10697
10796
10961
11131
11227
11385
11556
11838
12106
12320
12571
12616
12622
12625
12585
12528
12409
12355
12272
12234
12257
12242
12228
12221
12237
12228
11958
11755
11670
11705
11795
11942
12229
12284
12289
12291
12331
12377
12315
12273
12237
12245
12285
12366
12352
12366
12392
12387
12313
12283
12223
12129
11965
11743
11734
11811
11926
12001
12018
12018
11949
11769
11573
11411
11146
11159
11305
11536
11739
11919
12081
12177
12226
12315
12502
12712
12712
12712
12667
12559
12426
12284
12296
12297
12296
12279
12151
12090
12070
12101
12305
12831
13021
13062
12983
12870
12740
12465
12357
12318
12309
12312
12128
11953
11753
11607
11444
11310
11272
11285
11255
11186
11095
11084
11040
11049
11163
11306
11686
11928
12125
12291
12456
12603
12872
13106
13290
13436
13541
13678
13750
13750
13626
13364
13050
12337
11889
11427
11098
10884
10677
10662
10639
10799
11058
11628
11878
12062
12116
12141
12213
12498
12745
13065
13279
13325
12879
12574
12276
12016
11848
11814
11844
11879
12044
12216
12276
12040
11915
11862
11815
11754
11649
11398
11369
11420
11426
11398
11501
11451
11469
11629
11857
12476
12725
12873
12944
12959
12943
13130
13289
13302
13184
13059
12867
12770
12763
12835
12980
13054
12750
12594
12397
12223
12027
11510
11293
11016
10815
10800
10645
10507
10418
10303
10205
10352
10963
11361
11746
12057
12319
12770
12884
12985
13150
13468
13814
14349
14244
13989
13754
13530
12886
12442
12039
11689
11357
10973
10239
10024
9828
9747
9784
9916
10066
10346
10780
11776
12071
12377
12738
13037
13196
13232
13298
13375
13425
13493
13502
13486
13500
13586
13590
13543
13546
13540
13443
13278
12600
12196
11781
11368
10934
10528
10107
10095
10256
10443
10588
10695
10802
10962
11123
11263
11683
11938
12228
12515
12688
12763
12696
12682
12747
12851
12911
12672
12508
12397
12371
12386
12380
12384
12418
12467
12482
12466
12411
12290
12183
12166
12197
12235
12210
12137
12038
11945
11871
11714
11668
11643
11705
11807
12165
12420
12621
12795
12948
13100
13226
13202
13033
12708
12324
11495
11357
11355
11362
11245
11132
11061
10988
10859
10819
10885
11287
11457
11572
11725
11914
12432
12791
13120
13351
13503
13644
13478
13338
13233
13169
13123
12828
12548
12294
12013
11802
11612
11113
11088
11078
11038
10968
10810
10833
11000
11248
11594
12048
13101
13376
13380
13319
13235
12886
12641
12437
12314
12196
11867
11742
11823
11941
11942
11843
12027
12301
12578
12651
12483
12233
12216
12073
11682
11211
10872
10868
10941
11226
11613
11897
12242
12271
12262
12263
12346
12522
12539
12432
12238
12046
11909
12140
12442
12711
12783
12818
13104
13219
13243
13325
13532
13639
13237
12776
12353
11928
11559
10788
10493
10275
10187
10184
10293
10670
10886
11092
11349
11722
12213
12369
12622
13049
13620
14388
14325
14264
14214
13935
13503
12753
12400
12136
11889
11579
10610
10064
9569
9300
9311
9496
9794
10191
10715
11296
12076
12363
12647
12891
13041
13087
12996
13229
13507
13666
13695
13391
13338
13376
13401
13267
12951
12877
12798
12908
13390
13990
13877
13313
12704
11977
11157
10097
9678
9318
9080
8791
8332
7949
7649
7655
8222
9196
10232
11139
11879
12579
13708
14018
14130
14199
14337
14790
15061
15419
15763
16042
16178
16148
16100
15853
15186
14280
12649
11747
10623
9500
8673
8033
7322
6747
6384
6248
6335
6812
7811
9048
10297
11279
12483
12998
13370
13560
13698
13764
13673
13428
13048
12705
13087
13856
14518
14794
14770
14563
13934
13502
13230
13237
13366
13496
12948
11979
10697
9533
8955
9022
9393
9911
10463
10674
10458
10239
10157
10177
10343
11120
12028
13173
13875
14227
14331
14372
14457
14432
14319
13722
13463
13506
13591
13509
13348
12785
12486
12125
11705
11392
11712
12044
12165
11978
11477
10940
10230
9909
9797
9819
10060
10218
9992
9552
9056
8892
9309
10008
11406
12414
13410
14088
14459
14640
14411
14102
13750
13351
13013
12794
13104
13417
13392
13319
13201
13802
14648
15161
14863
14045
12686
12176
11550
10882
10413
10302
9744
9340
9115
9142
9216
9267
9358
9479
9781
10284
10776
11281
11854
12703
12843
12871
12799
12813
12894
13227
13386
13346
13036
12753
12796
12978
13226
13775
14081
13519
13261
12969
12775
12693
12626
12154
12047
12079
12272
12405
12944
13076
13066
13065
13021
13055
12237
11831
11570
11069
10250
9155
9647
10495
11167
11350
11250
11322
12102
12018
11758
11770
11913
12151
12953
13416
13644
13645
13246
11486
10567
10151
10453
11276
12085
13220
13630
14087
13985
13238
12019
12182
12624
12889
12652
11900
11274
10419
9609
9226
9438
9887
10230
10364
10640
10733
10928
11107
11166
11278
12704
13435
13855
14262
14895
14836
14127
13767
14173
15219
16848
18659
18004
16807
15292
13680
10418
8871
7578
6462
5492
4623
3919
3662
4404
5694
7133
8777
10312
11707
12911
13845
14883
15092
15279
15429
15283
14376
13926
13674
13593
13661
13598
13488
13292
13114
12945
12963
14321
15017
15405
15333
14842
13347
12434
11353
10197
9496
9335
9412
8736
7631
7379
8497
10209
11524
11425
11388
11340
11204
11036
10719
10801
11099
11911
13654
15992
16333
16273
16212
16334
16506
16095
15175
13556
11526
9677
8491
8178
8622
10708
10602
10052
9169
8068
7651
8368
9655
10444
10819
10655
10466
10298
10666
11734
12964
14715
15097
15722
16160
16133
15878
15034
14205
13571
13371
13295
12921
12079
10574
9159
8726
8928
9435
10257
10902
11171
11372
11533
11415
11321
12142
12159
11995
11955
12234
12607
13061
13368
13371
13115
12492
12136
12388
13194
13843
13974
13216
12716
12289
11826
11582
11356
10946
11317
12063
12857
12781
9990
9194
9577
10794
11612
11620
11468
11640
12227
12036
11997
12454
13135
13359
13424
14157
15039
15560
15694
16145
16335
15996
14649
12847
11193
8414
6858
5407
4884
5560
6593
7103
7311
7594
8123
9232
11053
12927
14217
15129
15722
15398
14872
14290
13553
13009
12700
12825
13816
15238
16492
16928
16450
15540
14052
12496
10458
9669
8993
8595
8741
9163
9994
12019
14158
15540
15956
14416
12919
10913
9061
7615
7288
7948
8208
8148
8269
9038
10270
11470
12863
13648
14595
15441
16480
17745
16819
15819
14923
14177
13334
10290
8390
6966
5676
4764
4635
5437
6658
8147
10166
12333
14040
14901
14816
14314
13924
13609
13509
14270
14662
14761
14651
14543
14376
13923
13220
12069
10708
9333
8446
8483
9080
9666
10436
11004
11789
12472
12886
13146
13492
13588
13748
14034
14435
15664
15691
15315
14857
14430
14158
13615
13466
14005
14111
13657
12988
12485
11886
11240
10175
7312
5691
4470
4002
4030
4526
5629
7603
10185
12563
14658
16103
16476
15596
15478
15768
15737
14932
13579
10731
9569
8920
9109
9868
10630
10835
10518
10098
10453
11372
12381
12966
13302
13783
13803
13751
13725
13763
13709
13288
13084
13087
13221
13360
13310
13476
13702
13790
13801
13575
12975
12702
12690
12649
12388
11078
10826
11094
11601
11924
11249
10729
10489
10508
10527
10368
10322
10215
10031
9925
10069
11117
13952
14447
14768
15332
15743
15128
14565
13816
12568
11003
9326
7810
6626
5971
8512
10621
12375
13625
14148
14121
13945
13825
13710
13443
12930
12290
10921
10584
10697
11170
11527
11598
11810
11932
12073
12290
12759
14142
14551
14607
14389
14082
13461
13149
12733
11988
10952
10013
9524
10611
11947
12695
12910
12976
13037
12812
12573
12293
11952
11554
11027
10529
10014
10180
10986
12625
12976
13070
13131
13198
13174
13440
13614
13466
13031
12519
11510
10981
10441
10133
10128
10420
10639
11005
11496
12071
12479
12926
13099
13240
13337
13780
14427
14164
13878
13516
12947
11636
11103
10520
9840
9417
9428
9626
9996
10502
10953
11497
11895
12436
13036
13725
14197
14388
14362
14429
14378
14065
13036
12312
11481
10742
9983
9386
9175
9363
9697
9939
10153
11029
11653
12259
12779
13160
13428
13576
13392
13163
12947
12783
12537
12433
12281
12085
11900
11905
12041
12339
12800
13138
13245
13010
12738
12439
12167
11951
11762
11676
11583
11450
11215
11054
11232
11411
11637
11841
11944
12031
12107
12213
12337
12424
12466
12495
12473
12447
12405
12359
12205
12172
12160
12133
12156
12377
12412
12389
12395
12504
12608
12591
12502
12376
12287
12205
12041
12038
12185
12375
12528
12512
12074
11930
11908
11842
11651
11446
11425
11261
10958
10816
11277
11591
11891
12128
12272
12275
12197
12084
11973
11995
12156
12306
12290
12295
12351
12439
12520
12552
12493
12420
12354
12280
12192
12253
12345
12497
12721
12890
12953
12903
12817
12732
12673
12454
12293
12096
11754
11398
11131
11193
11343
11539
11700
11837
11794
11724
11679
11668
11670
11658
11848
12100
12388
12620
12840
13095
13177
13173
13085
12966
12536
12170
11755
11324
10970
10793
10929
11054
11083
11127
11232
11677
11936
12191
12350
12449
12543
12580
12656
12782
12848
12827
12743
12692
12676
12637
12586
12309
12165
12052
11934
11833
11795
11908
12051
12133
12129
12080
12195
12311
12418
12504
12547
12443
12302
12236
12249
12296
12333
12249
12131
11988
11834
11624
11482
11571
11674
11784
11800
11743
11818
11944
12006
12078
12215
12457
12464
12462
12534
12630
11516
11815
12778
12928
12721
12403
11952
11914
11961
11932
11902
11700
11540
11502
11577
11740
11898
12014
12016
11965
11917
11948
12138
12303
12568
12841
13036
13315
13252
13093
12892
12714
12573
12304
12052
11723
11362
11080
10616
10463
10514
10798
11210
11560
12141
12385
12541
12652
12736
12815
12949
13186
13372
13451
13438
13125
12910
12667
12390
12077
11576
11363
11145
10917
10778
10727
10868
11011
11238
11559
11813
11989
12033
12056
12028
12059
12360
12566
12705
12764
12793
12805
12782
12863
13049
13134
13044
12651
12430
12216
12049
11956
11936
11855
11730
11637
11468
11269
11440
11633
11824
11908
11943
11945
11865
11768
11727
11810
11943
12153
12184
12182
12188
12173
12216
12278
12354
12395
12408
12435
12460
12488
12482
12491
12522
12496
12489
12505
12488
12451
12384
12367
12399
12413
12363
12269
12131
12096
12060
12065
12095
12068
11974
11809
11563
11320
11164
10976
10938
10987
11141
11361
11756
12034
12284
12449
12538
12623
12718
12809
12804
12714
12613
12394
12356
12315
12269
12220
12222
12219
12174
12010
11808
11670
11685
11906
12143
12277
12381
12424
12411
12412
12395
12337
12153
12043
11923
11822
11765
11765
11913
11969
11973
11960
11995
12183
12315
12393
12440
12507
12594
12664
12717
12784
12879
12983
12901
12696
12450
12197
11953
11700
11220
11028
10977
10974
10994
10940
10958
11161
11441
11621
11767
11865
12006
12193
12371
12478
12522
12538
12571
12657
12782
13056
13057
12996
12946
12896
12776
12544
12465
12389
12301
12191
11884
11720
11490
11188
10999
11085
11101
11209
11451
11742
11950
12180
12267
12328
12352
12356
12378
12348
12384
12526
12670
12800
12962
12959
12889
12790
12685
12582
12488
12349
12225
12118
12044
11849
11732
11577
11412
11221
10822
10726
10711
10911
11269
11852
11884
11946
12079
12247
12447
12652
12655
12641
12652
12685
12638
12570
12502
12458
12440
12490
12550
12547
12534
12519
12482
12402
12363
12325
12215
12034
11642
11531
11486
11479
11501
11562
11619
11640
11723
11848
11973
12159
12184
12203
12226
12249
12313
12450
12495
12478
12435
12369
12321
12303
12288
12286
12248
12071
12024
12063
12102
12136
12180
12153
12161
12179
12146
12070
11993
12020
12055
12087
12121
12186
12367
12474
12584
12667
12715
12643
12515
12233
11933
11714
11557
11486
11506
11439
11348
11370
11495
11559
11622
11686
11757
11811
11856
11981
12044
12045
12036
12052
12138
12322
12544
12707
12795
12783
12767
12726
12676
12612
12553
12511
12428
12315
12208
11939
11812
11750
11712
11717
11902
12008
12106
12190
12230
12194
12050
12035
12058
12050
11994
11953
11972
11979
11947
11952
12006
12210
12292
12350
12461
12512
12470
12418
12346
12270
12197
12135
12019
12003
12051
12077
12061
12044
12058
12091
12130
12128
12000
11882
11788
11801
11887
12014
12179
12235
12229
12214
12230
12292
12334
12352
12332
12282
12189
12058
12035
11997
11922
11831
11758
11705
11647
11624
11687
11979
12087
12135
12152
12137
12153
12321
12428
12485
12498
12488
12526
12541
12517
12479
12442
12371
12286
12312
12334
12300
12285
12323
12322
12294
12247
12143
12021
11945
11958
11967
11944
11875
11892
12030
12179
12319
12409
12303
12266
12228
12189
12154
12118
12002
11901
11749
11572
11460
11450
11473
11490
11504
11553
11649
11785
11868
11962
12061
12145
12306
12362
12410
12414
12433
12479
12482
12491
12491
12490
12510
12561
12645
12700
12674
12612
12423
12289
12189
12120
12049
11971
11902
11895
11856
11785
11707
11740
11817
11831
11792
11763
11815
11859
11933
12069
12245
12423
12600
12641
12655
12608
12542
12375
12295
12221
12129
12048
11984
11945
11957
11970
11953
11899
11847
11829
11788
11747
11736
11800
11955
11993
12017
12042
12123
12256
12309
12351
12390
12444
12504
12502
12506
12509
12492
12483
12400
12335
12251
12173
12115
11959
11875
11827
11789
11737
11725
11804
11798
11824
11929
12008
11974
11955
11953
11943
11931
11994
12036
12094
12180
12250
12314
12350
12360
12389
12403
12434
12509
12525
12555
12563
12544
12519
12333
12202
12143
12122
12096
12068
12087
12065
11966
11849
11726
11542
11495
11457
11462
11537
11699
11718
11769
11831
11944
12214
12364
12501
12594
12596
12561
12562
12533
12442
12333
12257
12171
12165
12142
12150
12155
12133
12113
12084
12041
12007
11961
11924
11915
11927
11965
11963
12001
12116
12234
12322
12374
12414
12432
12381
12314
12195
12093
12003
11978
11974
11960
11948
11937
11946
11967
11981
11969
12023
12157
12213
12255
12243
12168
12028
12047
12070
12113
12166
12254
12467
12568
12634
12668
12677
12556
12440
12314
12199
12123
12009
11819
11845
11902
11938
11934
12061
12137
12166
12144
12113
12101
12013
11940
11870
11801
11766
11859
11945
12003
12028
12048
12152
12164
12112
11978
11894
11839
11862
11972
12146
12314
12439
12555
12508
12452
12400
12273
12120
11926
11831
11778
11762
11763
11813
11924
12045
12135
12179
12255
12305
12320
12311
12312
12294
12300
12316
12328
12326
12349
12360
12341
12307
12279
12252
12233
12128
12094
12050
11991
11950
11920
11930
11938
11946
11935
11926
11954
11969
12001
12026
12055
12104
12132
12150
12194
12247
12202
12209
12243
12269
12236
12246
12346
12379
12409
12415
12352
12182
12143
12090
12045
12045
12097
12202
12227
12219
12148
12121
12001
11945
11909
11915
11893
11739
11740
11780
11811
11852
11935
12130
12136
12145
12181
12207
12387
12409
12387
12339
12285
12270
12115
12068
12026
11965
11923
11980
12170
12348
12476
12493
12507
12430
12274
12111
11985
11902
11896
11959
11985
11971
12004
11961
11935
11946
11980
12039
12089
12173
12218
12246
12259
12260
12269
12244
12220
12188
12165
12174
12179
12189
12181
12145
12084
11953
11882
11826
11829
11880
12030
12108
12182
12204
12156
12108
12025
11981
11959
11973
12018
12162
12198
12176
12127
12117
12141
12169
12183
12208
12227
12250
12308
12331
12337
12339
12326
12340
12308
12269
12224
12171
12078
11966
11903
11863
11865
11923
12135
12271
12372
12409
12388
12333
12129
12080
12036
11967
11933
11882
11892
11880
11843
11814
11842
12004
12085
12174
12263
12339
12481
12512
12501
12430
12396
12336
12307
12228
12129
12069
12039
11889
11827
11823
11844
11895
12032
12066
12121
12212
12333
12445
12478
12509
12520
12425
12297
12153
12073
11968
11925
11915
11772
11647
11534
11483
11512
11605
11839
12016
12197
12352
12487
12589
12557
12524
12476
12439
12415
12366
12319
12265
12199
12129
12000
11945
11940
11966
11978
11980
11899
11898
11907
11921
11906
11860
11867
11852
11818
11771
11722
11772
11845
11940
12033
12130
12301
12352
12373
12351
12387
12585
12721
12814
12832
12792
12760
12626
12485
12371
12307
12264
12081
11963
11863
11805
11801
11804
11809
11812
11818
11784
11765
11774
11774
11751
11745
11780
11984
12055
12123
12206
12292
12358
12418
12414
12408
12420
12413
12473
12521
12508
12432
12331
12092
12008
11919
11871
11857
11843
11772
11820
11888
11954
12035
12156
12181
12193
12207
12224
12227
12197
12173
12151
12116
12101
11945
11882
11848
11867
11905
11983
12243
12324
12363
12329
12276
12196
12142
12157
12194
12232
12134
12016
11902
11815
11780
11768
11821
11911
11964
12000
12095
12348
12437
12514
12591
12627
12675
12767
12817
12804
12691
12520
12322
12211
12052
11853
11655
11397
11318
11314
11331
11405
11481
11709
11896
12085
12216
12299
12516
12560
12556
12574
12598
12565
12420
12369
12356
12348
12289
11938
11766
11623
11523
11555
11651
11802
11821
11834
11857
11867
11985
12149
12360
12510
12522
12289
12136
12070
12057
12096
12159
12392
12497
12561
12596
12630
12647
12642
12666
12676
12643
12578
12481
12412
12289
12174
12061
11856
11729
11554
11316
11110
11194
11389
11571
11752
11875
11920
11966
11958
11953
12005
12187
12524
12631
12654
12578
12480
12270
11854
11740
11709
11735
11731
11683
11771
11956
12200
12426
12795
12940
12985
12962
12885
12782
12519
12365
12232
12099
11982
11895
11873
11853
11855
11848
11818
11704
11693
11683
11692
11699
11712
11737
11792
11888
12011
12159
12338
12456
12634
12782
12867
12786
12705
12558
12340
12124
11823
11704
11649
11675
11733
11837
12046
12057
12055
12061
12059
12029
11996
12025
11982
11744
11632
11760
11757
11748
11834
12032
12304
12383
12492
12626
12745
12775
12734
12733
12716
12671
12623
12394
12269
12176
12104
12090
12231
12257
12297
12302
12298
12257
12005
11928
11930
11962
12012
12091
12055
11976
11838
11702
11706
11797
11789
11882
12016
12091
12104
12039
11906
11771
11693
11740
11796
11852
11937
12010
12088
12340
12464
12449
12394
12413
12334
12200
12150
12081
12002
12007
12100
12119
12150
12149
12132
12172
12162
12187
12236
12318
12305
12182
12031
11919
11799
11680
11573
11655
11791
11892
11931
12089
12218
12313
12372
12442
12545
12549
12513
12575
12645
12680
12584
12475
12326
12152
12008
11816
11727
11666
11623
11610
11602
11715
11832
12009
12184
12394
12733
12877
12970
12965
12912
12768
12443
12351
12207
12079
11935
11456
11295
11219
11198
11241
11316
11521
11643
11808
11977
12160
12400
12431
12436
12466
12484
12448
12399
12317
12194
12086
12046
11993
12005
12066
12103
12095
12095
12112
12088
12024
11961
11899
12042
12159
12263
12317
12342
12412
12433
12516
12603
12699
12670
12553
12459
12360
12206
12093
11991
11955
11873
11782
11732
11806
11853
11864
11892
11938
11992
11977
11939
11903
11921
12013
12193
12255
12288
12274
12177
12048
11837
11788
11793
11781
11821
12035
12253
12484
12643
12751
12770
12694
12558
12453
12399
12390
12200
11988
11838
11770
11785
11851
11868
11880
11907
11930
11980
12066
12077
12089
12065
11978
11874
11921
12017
12057
12017
12008
12014
11968
11920
11922
11953
12035
12043
12110
12210
12358
12521
12443
12370
12323
12329
12382
12451
12450
12355
12190
12026
11808
11835
11940
12041
12132
12210
12301
12368
12468
12546
12509
12227
12131
12031
11932
11876
11887
11868
11828
11781
11775
11797
12003
12108
12152
12147
12166
12214
12221
12202
12215
12244
12238
12197
12209
12244
12298
12350
12187
12015
11939
11934
11945
11996
11990
12020
12074
12152
12225
12366
12396
12444
12497
12526
12617
12664
12661
12597
12454
12281
12007
11925
11786
11600
11430
11230
11232
11357
11555
11740
12084
12234
12352
12422
12422
12390
12221
12125
12066
12020
12015
12095
12080
12014
11995
12036
12099
12085
12053
12048
12070
12106
12164
12197
12199
12168
12141
12152
12152
12116
12096
12082
12082
12205
12283
12276
12208
12080
11999
12020
12024
12028
12058
12114
12257
12352
12436
12384
12305
12402
12539
12660
12674
12613
12541
12390
12234
12100
12003
11873
11583
11612
11681
11739
11775
12111
12313
12464
12546
12612
12626
12502
12421
12317
12214
12113
11924
11763
11588
11488
11422
11402
11551
11740
11952
12134
12281
12387
12347
12243
12144
12115
12141
12181
12182
12177
12177
12118
12024
12078
12137
12203
12218
12141
12106
11999
11839
11731
11722
11811
11887
12015
12176
12295
12343
12349
12389
12398
12371
12341
12321
12329
12249
12118
12104
12224
12246
12211
12204
12242
12359
12431
12453
12444
12455
12522
12464
12382
12329
12279
12201
11958
11893
11835
11763
11751
11767
11557
11564
11653
11749
11849
12091
12121
12090
12106
12141
12175
12105
12067
12070
12028
11926
11862
11934
12091
12250
12405
12552
12507
12434
12365
12352
12399
12351
12269
12119
11923
11720
11543
11521
11529
11568
11631
11693
11743
11889
12049
12212
12360
12498
12513
12564
12639
12756
12876
12847
12866
12844
12754
12626
12353
12271
12241
12192
12099
11845
11688
11607
11599
11607
11611
11672
11750
11789
11799
11767
11773
11835
11907
11991
12073
12342
12437
12476
12449
12352
12237
12180
12239
12260
12237
12217
12164
12195
12209
12166
12151
12146
12063
11982
11919
11878
11885
11963
11968
11999
12054
12110
12157
12188
12165
12105
12051
12075
12085
12001
11962
12004
12121
12484
12606
12703
12706
12629
12489
12115
12019
11951
11834
11678
11629
11783
11957
12125
12267
12370
12490
12475
12423
12361
12306
12178
12151
12141
12121
12047
12069
12125
12106
12045
11976
11913
11817
11776
11800
11880
11991
12087
12080
12142
12281
12427
12532
12536
12474
12414
12356
12340
12273
12183
12047
11891
11762
11665
11621
11680
11808
11963
12125
12308
12315
12256
12134
12009
11850
11869
11957
12037
12071
12048
12090
12127
12161
12222
12302
12368
12342
12310
12271
12252
12268
12416
12490
12468
12353
12269
12063
11923
11802
11650
11527
11598
11727
11885
12020
12077
12054
11972
11960
11995
12049
12077
12008
12001
12054
12181
12386
12591
12769
12774
12780
12738
12693
12612
12530
12475
12433
12339
12230
11943
11739
11572
11468
11396
11446
11510
11551
11601
11686
11894
12009
12095
12150
12240
12409
12661
12722
12778
12836
12922
13045
12969
12823
12651
12520
12406
12188
12065
11977
11901
11701
11288
11262
11301
11303
11252
11208
11216
11220
11223
11198
11219
11560
11773
11956
12092
12158
12352
12497
12663
12807
12890
12973
13056
13071
13042
12978
12913
12723
12572
12389
12204
12075
11939
11934
11966
12047
12195
12382
12596
12524
12444
12371
12309
12236
12180
12103
11975
11807
11651
11352
11146
10950
10827
10836
10938
11024
11176
11422
11663
11871
12327
12542
12804
13026
13256
13710
13772
13747
13656
13471
13106
13001
12842
12582
12253
11949
11286
10959
10671
10491
10451
10574
10726
10908
11108
11253
11432
11651
11696
11843
12048
12262
12581
12764
12932
13047
13163
13497
13674
13808
13862
13817
13747
13404
13152
12842
12521
12238
11735
11520
11300
11135
11087
11059
10971
11046
11060
11050
11053
11175
11323
11437
11493
11531
11564
11466
11382
11361
11315
11248
11617
11973
12309
12608
12872
13125
13196
13259
13319
13461
13700
13822
13712
13553
13338
13079
12633
12435
12276
12124
11912
11638
11076
10841
10689
10670
10659
10774
10973
11245
11491
11679
11882
12024
12187
12305
12427
12537
12624
12682
12827
13012
13234
13676
13894
13976
13904
13774
13669
13323
13000
12605
12074
11435
10290
9899
9649
9549
9527
9543
9648
9942
10299
10656
11078
11523
12318
12500
12553
12591
12643
12608
12574
12687
12963
13453
14078
14888
14966
14818
14573
14240
13518
13106
12631
12068
11443
10764
9444
9013
8753
8656
8680
8943
9462
10216
10989
11586
12072
12856
13074
13185
13156
13088
12980
12660
12454
12346
12427
12502
12495
12607
12830
13051
13202
13298
13426
13479
13520
13583
13555
13213
13011
12784
12496
12142
11419
10998
10500
10082
9877
9822
9932
10141
10289
10665
11009
11399
11787
12137
12461
12491
12543
12557
12490
12624
12747
12890
13088
13259
13353
13127
12980
12951
12904
12727
12632
12875
13056
13038
12804
12520
11821
11493
11266
11180
11087
10860
10988
11407
11708
11737
11707
12034
12075
11972
11727
11474
11576
11846
11975
12047
12110
11714
11460
11398
11510
11719
11995
12553
12882
13358
13813
14049
14036
13910
13687
13404
13006
12526
11782
11653
11563
11313
11026
10762
10915
10946
11002
11143
11669
11851
12069
12165
12067
11828
11456
11534
11482
11367
11399
11848
12017
12203
12274
12252
12297
12478
12560
12830
12971
13005
13076
13017
12949
12889
12830
12673
12560
12298
11929
11511
11199
11402
11704
11893
12030
12220
12901
13431
13842
14151
14159
13851
13114
12969
12789
12494
12193
11189
10548
9963
9613
9411
9470
9876
10492
11323
12086
12999
13157
13247
13327
13332
13143
12588
12455
12281
12166
11994
11646
11663
11786
11966
12061
12150
12105
11968
11838
11695
11448
10757
10536
10595
10789
11044
11477
11693
12055
12431
12622
12751
13179
13483
13939
14382
14516
14033
13567
12921
12208
11490
10870
10877
11068
11274
11317
11400
11563
11602
11801
12105
12410
12312
11964
11617
11154
10620
10202
10736
11667
12503
12947
13193
13519
13825
13931
13879
13615
13201
12508
12705
13043
13269
13329
13081
12763
12630
12488
12176
11652
11348
10994
10414
9749
9338
9215
9237
9422
9922
10780
12088
12328
12403
12507
12622
12538
11988
11971
12286
13021
13741
14447
14463
14313
14218
14252
14089
13432
13528
13620
13296
12617
10890
10302
10088
10012
9916
9715
9417
8985
8694
8953
9308
9585
9895
10283
11247
12338
13475
14387
15156
16197
16513
16627
16333
15709
14217
13321
12258
10993
9758
8654
7621
6947
6990
7556
8400
9310
10285
13455
15107
16416
17356
18222
18606
17203
15990
14767
13743
12957
11043
9618
8198
7362
7256
7622
8136
8642
9275
9719
9677
9509
9622
10145
10471
10642
11346
12573
14104
15146
15654
15677
15085
14638
14263
14080
13922
12837
11600
10283
9407
9729
11248
12649
13393
13126
12409
11414
10629
10286
10543
10499
10277
9588
8767
8266
8331
8798
9648
11061
12616
14271
14771
15060
14840
14309
13514
13686
14572
15473
15729
15716
15570
15165
14277
13144
11992
9616
8579
7825
7607
7866
8693
10352
12976
15653
17193
17446
15679
14860
14034
13014
11857
9455
7490
5206
3831
3723
4641
6393
8489
10207
11025
11843
13132
14667
16837
17087
17290
17112
16704
16304
15680
15432
14956
14084
13029
10672
10142
10510
10981
11083
10853
11078
11000
10340
9540
9459
10089
11039
12779
13306
13694
13587
12614
9285
8259
8936
10570
11987
12735
12738
12595
13409
14802
15833
16200
15940
15133
13528
12320
10960
9367
7721
6600
6047
5570
5060
5187
6524
8845
10999
14228
15302
15861
16086
16286
16522
16287
16359
16718
16851
16555
15202
14704
14759
15017
14853
14113
11037
9371
7841
6608
6024
6028
6300
6868
7454
7716
8285
9622
11010
12085
13044
13905
13761
13438
12922
12031
9941
10324
11399
12506
13640
14745
15423
15317
14499
14007
14042
14182
13415
12886
12430
12028
11512
11448
12231
12544
12483
12007
11462
11611
11433
10839
9713
8689
8421
8620
8789
8880
9387
10240
11022
12325
13453
14333
14766
15381
16573
16636
16318
15646
14658
13388
10981
10324
9934
10398
11824
13049
13670
13507
12978
12137
11081
10202
10782
11421
11983
12040
11494
10100
10314
10820
11218
11345
10612
10323
10598
11546
12814
13873
14533
14287
13703
12790
11794
10067
9654
10137
11421
12629
13938
16234
16537
16611
16568
16222
15520
12912
10742
8136
5616
3762
2969
3267
4804
7271
9952
12151
13858
15035
16704
17194
17203
16900
15932
12990
11101
9249
8076
8368
9462
10272
10576
10416
10317
10891
11614
12771
14849
18600
18633
17676
16513
15233
14057
11993
10809
9769
8799
7744
7360
7858
9097
10935
12564
13258
13213
12668
11798
11033
10620
10120
10203
10255
10165
10197
10775
12898
13757
14403
14720
14710
14023
13930
13930
13667
12935
11006
10530
10312
10579
11839
13622
15472
15482
14802
13862
13027
11770
11216
10469
9499
8350
7535
7301
7671
8527
9594
10607
11597
12926
12919
12945
13007
13002
12858
13111
13641
14023
14126
14422
15235
15806
16470
16753
16416
14249
13121
11769
10206
8871
7764
6888
6113
5336
5125
6247
8145
9866
11228
13464
13980
14159
14355
14797
15648
15786
15536
14892
14024
13025
10818
9721
9186
9163
8996
8839
9154
9747
10486
11353
12327
13198
13747
13584
13370
13164
12942
12588
12425
12274
12152
12280
13727
14035
14198
14289
14340
14291
13892
13448
12798
12059
11257
9313
8827
8991
9314
9859
10618
11594
12641
13365
13701
13644
13359
12850
12224
11662
11321
11307
11327
11537
11841
12130
12473
12326
11877
11262
10535
10037
10247
10854
11778
12577
13108
13478
13475
13326
13086
12880
12304
11914
11514
11168
10952
11075
12097
12732
13468
14144
14533
14453
14243
13941
13529
13101
12648
11392
10431
9314
8298
7772
7886
8454
9339
10449
11483
12136
12607
12778
12985
13122
13150
13275
13194
13094
13006
12906
12942
13064
13108
13136
13137
13045
13171
13409
13486
13235
12730
11687
11290
10742
10274
10211
10507
10766
10815
10989
11130
11277
11971
12204
12384
12629
12857
12878
12889
12956
12979
12946
12863
12415
11994
11541
11267
11231
11389
11370
11341
11470
11768
12110
12527
12594
12730
12852
12878
12930
12959
12970
12922
12778
12443
12191
11945
11692
11417
11328
11366
11397
11684
11993
12129
12153
12183
12240
12303
12427
12621
13367
13730
13999
14061
13827
12977
12398
11812
11175
10704
10441
9382
8614
8192
8300
8838
9688
10649
11575
12421
13024
13508
13490
13437
13330
13223
13126
12856
12717
12550
12406
12275
12126
12146
12302
12471
12540
12547
12536
12515
12526
12518
12452
12310
12243
12184
12212
12178
12078
12174
12317
12391
12405
12389
12412
12375
12350
12405
12502
12648
12636
12596
12522
12433
12328
11835
11675
11650
11665
11640
11434
11211
10972
10899
11079
11352
11663
11841
11947
11985
12005
11732
11635
11592
11618
11731
12160
12324
12419
12494
12604
12675
12845
12949
13106
13170
13130
12997
12928
12845
12751
12637
12479
12041
11937
12001
12171
12205
11897
11771
11766
11778
11749
11624
11177
11057
10964
10882
10865
11238
11669
12109
12476
12744
13041
13063
13015
12944
12814
12632
12179
11970
11821
11752
11718
11794
11984
12181
12247
12260
12201
12126
12182
12242
12253
12214
12129
12164
12226
12243
12211
12272
12272
12191
12208
12316
12468
12713
12779
12795
12780
12811
13010
12861
12553
12117
11585
11140
10626
10398
10253
10229
10266
10792
11209
11547
11792
12034
12592
12793
12941
13018
13037
13011
12916
12863
12791
12752
12683
12412
12235
12120
12068
11997
11995
11971
11925
12000
12162
12337
12489
12479
12431
12374
12288
12170
11915
11804
11697
11631
11671
11939
12038
12066
12098
12186
12526
12646
12739
12741
12628
12507
12484
12404
12226
11977
11687
11104
10944
10917
10971
11098
11311
11854
12150
12414
12708
13132
13877
13972
13874
13640
13381
12604
12143
11732
11401
11175
10934
10380
10179
10112
10292
10736
11675
11960
12058
12128
12224
12338
12677
12742
12796
12839
12872
12847
12741
12597
12503
12411
12313
11979
11766
11619
11636
11791
12213
12281
12260
12178
12080
12112
12197
12194
12140
12088
12098
12158
12202
12243
12237
12229
12257
12293
12334
12366
12393
12440
12459
12431
12422
12424
12404
12290
12219
12167
12117
12075
12040
12002
11963
11870
11755
11746
11810
11826
11815
11799
11842
12092
12160
12177
12152
12189
12249
12241
12157
11982
11745
11558
11390
11445
11473
11525
11675
11976
12758
13056
13267
13418
13540
13366
13120
12847
12616
12378
11766
11485
11167
10903
10760
10761
10758
10967
11283
11520
11684
11893
11905
11998
12139
12336
12530
12874
12950
12880
12786
12734
12593
12461
12296
12120
12006
11868
11783
11692
11648
11736
11905
12132
12152
12140
12137
12141
12210
12300
12322
12288
12308
12339
12314
12297
12294
12282
12241
12188
12153
12128
12105
12106
12190
12211
12205
12174
12156
12177
12209
12196
12190
12177
12171
12188
12204
12217
12224
12237
12240
12232
12189
12122
12047
11992
11988
11988
11999
12035
12118
12234
12335
12355
12341
12291
12258
12220
12188
12141
12109
12063
11885
11837
11825
11817
11757
11674
11734
11752
11778
11880
12079
12480
12648
12792
12908
12945
12900
12800
12720
12611
12483
12349
11861
11575
11291
10938
10501
10143
10343
10618
10890
11197
11550
12083
12279
12472
12664
12810
12968
12992
13006
12985
12918
12854
12753
12651
12534
12421
12308
12157
12100
12052
11993
11954
11971
11995
12013
12039
12055
12082
12160
12142
12100
12042
12046
12265
12430
12533
12507
12456
12428
12336
12253
12196
12117
11971
11593
11480
11466
11508
11597
11757
11973
11994
11957
11846
11779
11964
12114
12238
12346
12422
12454
12457
12472
12463
12442
12416
12355
12299
12247
12201
12157
12119
12127
12159
12207
12267
12400
12791
12957
12990
12909
12754
12461
12280
12085
11926
11829
11727
11648
11516
11274
11028
10891
10850
10879
10933
11026
11215
11860
12099
12225
12290
12353
12404
12373
12315
12289
12305
12338
12435
12464
12519
12623
12734
12852
13036
13067
13037
12979
12930
12687
12468
12243
12108
12021
11895
11868
11868
11840
11789
11819
11712
11589
11456
11367
11300
11224
11248
11316
11454
11617
11732
11874
11883
11907
11994
12130
12430
12519
12572
12636
12679
12700
12707
12680
12640
12577
12509
12401
12381
12378
12403
12431
12418
12359
12280
12218
12186
12166
12070
12020
12007
11987
11949
11819
11798
11798
11811
11789
11754
11681
11709
11764
11816
11909
12131
12198
12253
12291
12325
12370
12388
12418
12496
12569
12651
12854
12914
12957
12976
12951
12759
12605
12398
12175
11972
11784
11444
11279
11181
11140
11182
11252
11289
11325
11351
11409
11648
11841
12029
12173
12296
12402
12477
12494
12520
12531
12515
12447
12426
12377
12312
12254
12200
11973
11829
11731
11686
11699
11809
11949
12156
12317
12362
12174
12065
12010
12053
12179
12261
12229
12249
12238
12229
12236
12135
12114
12130
12180
12233
12247
12269
12278
12304
12348
12364
12356
12338
12323
12306
12292
12244
12128
12081
12024
11982
11981
11988
11983
11973
11997
12032
12107
12189
12214
12201
12189
12174
12131
12171
12214
12244
12262
12258
12196
12133
12070
12056
12095
12206
12205
12127
12010
11918
11906
11999
12105
12172
12180
12149
12120
12120
12116
12128
12166
12274
12372
12487
12525
12432
12006
11766
11595
11503
11447
11431
11591
11672
11719
11752
11817
11903
11886
11908
11972
12079
12201
12428
12506
12516
12525
12530
12529
12491
12411
12332
12241
12122
12105
12141
12178
12183
12214
12232
12249
12225
12152
12132
12079
12017
12014
12024
12059
12089
12091
12131
12152
12194
12266
12307
12281
12258
12233
12206
12182
12133
12073
12010
11960
11921
11941
12020
12105
12137
12134
12143
12167
12198
12235
12289
12351
12461
12439
12408
12341
12258
12113
12074
12061
12068
12087
12080
12017
12043
12065
12034
11945
11690
11586
11547
11557
11585
11776
11902
11991
12054
12119
12209
12438
12509
12535
12535
12530
12469
12448
12414
12344
12284
12280
12248
12188
12120
12060
12001
11960
11952
11935
11928
11928
12019
12022
12001
11983
11962
11933
11907
11958
11993
12006
12002
12025
12021
12063
12092
12065
12038
12024
11976
11975
12059
12191
12471
12530
12546
12516
12503
12579
12592
12574
12501
12420
12387
12284
12186
12081
12026
12016
12022
12070
12144
12160
12118
12020
11898
11827
11787
11797
11861
11920
11921
11961
12008
12094
12155
12190
12210
12276
12356
12400
12335
12278
12279
12299
12310
12311
12305
12251
12153
12018
11861
11581
11489
11493
11596
11698
11857
11873
11877
11878
11929
12044
12332
12437
12391
12309
12259
12235
12185
12150
12149
12165
12217
12262
12296
12309
12360
12403
12401
12353
12271
12158
12024
11939
11894
11826
11769
11711
11691
11779
11912
12044
12117
12171
12273
12334
12369
12289
12180
12152
12017
11904
11808
11787
11824
12015
12168
12326
12512
12753
13101
13132
13120
13039
12898
12730
12369
12276
12142
11955
11727
11470
11490
11527
11603
11726
11848
11929
11884
11826
11842
11918
11989
12018
12099
12216
12297
12338
12319
12296
12247
12187
12153
12149
12128
12126
12089
12042
11907
11870
11887
11950
11993
12008
12068
12086
12080
12063
12080
12102
12113
12135
12151
12140
12190
12161
12157
12190
12228
12303
12455
12444
12411
12359
12278
12084
11964
11858
11835
11850
11918
11981
11967
11977
11973
11986
12045
12036
12009
11979
11949
11949
11967
11976
12012
12093
12210
12389
12415
12469
12594
12754
12916
12914
12883
12884
12820
12612
12083
11913
11811
11691
11548
11420
11439
11502
11595
11689
11800
12065
12118
12135
12142
12164
12191
12188
12174
12129
12090
12080
12081
12091
12115
12149
12156
12141
12130
12137
12116
12075
11961
11912
11922
11963
12009
12055
12143
12178
12179
12171
12188
12257
12295
12354
12421
12457
12489
12496
12450
12360
12259
12181
11998
11915
11870
11844
11834
11867
11935
12014
12070
12112
12148
12112
12046
12032
11999
11941
11806
11745
11775
11950
12191
12400
12586
12620
12640
12615
12542
12360
12281
12181
12047
11974
12082
12165
12144
12042
11888
11749
11489
11391
11354
11414
11542
11817
11948
12124
12305
12447
12536
12762
12916
13055
13160
13190
12987
12848
12625
12323
12030
11593
11424
11347
11393
11496
11632
11890
11945
11976
12019
12073
12195
12199
12160
12085
12000
11878
11668
11644
11707
11879
12088
12397
12519
12588
12603
12591
12557
12357
12263
12225
12159
12089
12052
11998
11969
11950
11942
11926
11926
11952
11947
11953
11993
12052
12074
12104
12110
12100
12154
12176
12196
12219
12219
12220
12135
12138
12172
12192
12193
12173
12107
12082
12098
12103
12172
12240
12276
12259
12206
12156
12054
12026
12038
12054
12090
12170
12163
12135
12101
12085
12090
12123
12114
12111
12115
12147
12192
12208
12240
12267
12239
12215
12179
12044
11883
11753
11696
11631
11654
11739
11822
11891
12098
12235
12360
12472
12530
12571
12604
12562
12557
12654
12772
12700
12582
12511
12428
12291
12109
11842
11861
11996
12124
12151
11948
11762
11633
11605
11646
11898
12030
12089
12097
12070
12000
11758
11739
11770
11694
11512
11436
11488
11583
11707
11823
11960
12183
12279
12436
12615
12801
13136
13235
13250
13177
13067
12891
12548
12437
12344
12284
12242
12096
12015
11872
11698
11535
11534
11682
11820
11878
11881
11900
11996
11995
11957
11943
11971
12078
12134
12172
12183
12176
12151
12062
12006
11916
11825
11777
11793
11845
11885
11968
12114
12339
12374
12421
12461
12493
12493
12483
12494
12486
12444
12357
12153
12049
11933
11797
11670
11592
11613
11711
11819
11927
12033
12116
12167
12220
12273
12356
12554
12617
12605
12555
12462
12326
12050
11957
11895
11853
11831
11836
11832
11871
11960
12091
12267
12364
12335
12318
12315
12242
12069
12060
12066
12071
12052
12048
12186
12265
12302
12284
12226
12057
11978
11945
11978
12070
12230
12318
12401
12479
12486
12407
12289
12249
12159
11987
11803
11589
11631
11786
11937
12062
12174
12343
12370
12386
12429
12452
12350
12270
12218
12184
12122
12011
12026
12069
12067
12023
11945
11827
11800
11811
11862
11916
12034
12167
12286
12370
12397
12324
12094
11983
11895
11871
11863
11905
11964
12017
12089
12193
12226
12316
12360
12324
12303
12285
12216
12232
12229
12200
12167
12124
12107
12097
12074
12071
12092
12185
12260
12315
12359
12344
12294
12243
12140
12007
11932
11912
11933
11933
11922
11888
11845
11820
11845
11901
11986
12111
12356
12370
12338
12252
12095
11926
11837
11939
12046
12159
12207
11990
11987
12010
12011
11973
11929
11838
11791
11864
12049
12281
12568
12689
12793
12864
12852
12823
12772
12733
12732
12678
12504
12135
11964
11810
11653
11549
11673
11691
11672
11708
11807
11920
12074
12072
12082
12132
12187
12296
12362
12397
12395
12348
12240
11935
11858
11872
11939
12015
12078
12136
12213
12256
12249
12184
12062
11934
11833
11784
11747
11751
11763
11763
11819
11916
12128
12227
12338
12464
12554
12602
12546
12564
12669
12614
12417
11891
11693
11555
11427
11349
11587
11709
11808
11948
12165
12401
12687
12749
12716
12600
12467
12370
12363
12328
12334
12320
12255
12162
12072
11964
11884
11857
11958
12044
12164
12295
12403
12489
12494
12490
12466
12403
12333
11910
11547
11356
11353
11420
11385
11361
11415
11528
11651
11784
12014
12163
12326
12445
12495
12676
12764
12792
12745
12675
12599
12391
12335
12280
12185
12051
12006
11987
11904
11868
11885
12088
12076
12036
12029
12029
11998
11992
12046
12079
12106
12111
11932
11884
11892
11978
12174
12379
12590
12567
12496
12440
12418
12030
11667
11378
11221
11168
11315
11415
11521
11641
11773
11945
12355
12640
12962
13272
13487
13699
13657
13519
13347
13138
12888
12391
12099
11815
11590
11424
11148
11010
10982
11112
11321
11507
11827
11961
12052
12084
12088
12100
12103
12006
11888
11827
11805
11843
11915
12045
12212
12410
12731
12746
12701
12670
12644
12553
12519
12470
12366
12258
12154
11908
11663
11367
11248
11286
11434
11444
11448
11473
11481
11624
11856
12171
12456
12713
12903
13109
13148
13146
13101
12991
12586
12409
12255
12114
11988
11882
11717
11703
11719
11701
11594
11491
11622
11774
11973
12146
12197
12196
12155
12072
11988
12033
12233
12228
12247
12305
12362
12454
12473
12471
12485
12555
12688
12817
12773
12687
12527
12285
11851
11775
11757
11783
11884
11933
11823
11765
11749
11729
11723
11871
11936
11968
12007
12069
12077
12041
12051
12082
12086
12047
11982
11960
11886
11743
11669
11797
11871
11909
11944
12034
12125
12265
12321
12350
12351
12404
12699
12800
12867
12869
12765
12587
12168
12042
11966
11924
11923
12043
12112
12104
12051
11971
11834
11823
11871
11955
12065
12180
12302
12297
12301
12286
12243
12073
11919
11823
11835
11915
12019
12246
12320
12327
12283
12214
12052
12017
11948
11804
11673
11649
11815
12039
12226
12373
12440
12470
12434
12369
12284
12266
12318
12325
12329
12325
12228
12137
12140
12243
12309
12308
12283
12145
12073
12054
12088
12060
12004
12030
12019
12047
12127
12195
12269
12244
12157
11995
11823
11509
11464
11456
11478
11548
11675
11936
12016
12090
12148
12207
12408
12476
12508
12511
12511
12495
12413
12446
12484
12516
12549
12559
12544
12531
12524
12443
11986
11796
11628
11409
11269
11220
11187
11277
11436
11614
11804
12100
12209
12290
12292
12271
12295
12473
12574
12624
12611
12601
12532
12512
12518
12470
12428
12508
12447
12354
12283
12191
12082
11893
11823
11805
11802
11829
11838
11842
11864
11924
12031
12154
12212
12153
12116
12112
12140
12260
12269
12269
12291
12319
12335
12150
12028
11930
11911
11908
12040
12142
12182
12228
12355
12522
12517
12489
12438
12363
12265
11948
11821
11750
11711
11694
11621
11628
11642
11661
11689
11710
11861
11906
11910
11915
11966
12104
12162
12167
12095
11994
11807
11817
11958
12139
12284
12415
12710
12772
12784
12758
12737
12834
12850
12785
12684
12569
12481
12311
12166
12044
11905
11811
11915
12036
12078
12069
12018
11978
11834
11756
11728
11752
11774
11835
11874
11946
12014
12045
12124
12135
12116
12113
12112
12102
12148
12161
12130
12132
12172
12198
12186
12160
12097
12023
11984
12020
12075
12150
12196
12225
12272
12247
12220
12170
12102
12092
12088
12127
12191
12200
12209
12306
12278
12226
12158
12075
11943
11924
11971
12042
12112
12162
12357
12427
12493
12587
12728
12711
12520
12366
12283
12211
12011
11974
11929
11858
11777
11664
11490
11503
11526
11568
11598
11640
11668
11651
11684
11804
11908
12050
12119
12097
12038
12051
12315
12445
12472
12441
12432
12464
12489
12447
12400
12368
12363
12311
12230
12179
12153
12085
11927
11900
11964
12142
12369
12517
12475
12448
12449
12438
12437
12429
12449
12497
12529
12518
12475
12373
12285
12148
11986
11852
11731
11691
11702
11708
11667
11655
11671
11694
11765
11852
11937
12090
12104
12078
12004
11896
11800
11802
11792
11756
11712
11758
12105
12251
12323
12328
12322
12436
12436
12367
12270
12180
12240
12299
12357
12419
12447
12461
12466
12431
12412
12348
12234
12096
12035
11926
11903
11925
11958
11993
11923
11853
11835
11860
11973
12019
12043
12087
12113
12128
12230
12297
12345
12367
12352
12300
12309
12323
12283
12244
12231
12245
12234
12197
12153
12136
12154
12161
12147
12134
12143
12178
12188
12175
12167
12234
12318
12277
12164
12084
12059
12054
12092
12082
11992
11864
11790
11743
11726
11722
11713
11697
11680
11716
11735
11705
11631
11608
11798
11970
12115
12157
12168
12191
12360
12446
12520
12579
12653
12745
12753
12764
12778
12763
12763
12697
12627
12554
12447
12350
12143
11947
11692
11520
11442
11431
11466
11408
11357
11439
11621
11972
12072
12126
12179
12223
12267
12243
12214
12187
12143
12157
12229
12315
12486
12615
12655
12712
12728
12726
12683
12643
12640
12557
12407
12184
11929
11666
11342
11233
11171
11165
11253
11486
11562
11671
11820
11977
12115
12361
12463
12502
12518
12517
12378
12242
12187
12197
12232
12272
12229
12207
12188
12187
12114
11936
11854
11819
11811
11896
12207
12365
12429
12460
12532
12594
12722
12802
12809
12753
12680
12522
12449
12328
12181
12058
11885
11494
11303
11138
11001
10925
10906
11040
11250
11463
11666
11967
12079
12222
12364
12504
12571
12596
12599
12619
12634
12655
12695
12707
12779
12862
12938
13000
12934
12802
12669
12506
12314
11942
11851
11758
11626
11522
11524
11575
11528
11440
11369
11351
11402
11403
11418
11438
11515
11779
11831
11945
12133
12316
12446
12568
12521
12477
12476
12499
12596
12593
12613
12645
12657
12633
12600
12660
12710
12683
12589
12360
12227
12052
11857
11705
11504
11413
11351
11292
11284
11345
11574
11700
11823
11967
12095
12336
12401
12401
12442
12568
12753
12988
13073
13117
13097
13061
12933
12841
12707
12528
12294
11702
11411
11170
10959
10852
10835
10917
11012
11171
11335
11473
11864
11941
11935
11972
11979
11947
11913
11978
12134
12333
12537
12810
12953
13095
13187
13180
13108
12814
12614
12445
12353
12310
12288
12302
12284
12251
12183
12045
11949
11841
11871
12019
12159
12243
12122
11948
11750
11550
11176
11196
11403
11583
11653
11643
11520
11513
11640
11905
12175
12352
12386
12446
12529
12581
12583
12583
12553
12525
12459
12390
12366
12358
12342
12366
12387
12261
12190
12184
12176
12180
12183
12134
12124
12171
12223
12196
11996
11913
11911
12006
12096
12132
12125
12136
12158
12202
12251
12173
12078
12020
11993
12006
11895
11735
11564
11370
11227
11216
11406
11620
11829
12029
12229
12514
12608
12680
12752
12809
12819
12752
12694
12677
12826
13079
13181
13102
13001
12795
12486
11843
11623
11415
11198
11068
11009
10798
10833
10994
11171
11367
11866
12040
12161
12203
12169
12120
12048
12142
12388
12657
12956
13358
13320
13252
13176
13058
12654
12369
12053
11674
11307
10962
10854
10962
11111
11383
11667
12050
12204
12304
12375
12407
12429
12207
11997
11779
11532
11419
11526
11653
11792
11898
12023
12201
12557
12704
12816
12891
12972
13065
13088
13116
13114
13062
12745
12555
12355
12164
11931
11696
11327
11233
11175
11261
11369
11463
11504
11668
11968
12398
12811
13316
13469
13529
13528
13372
12622
12029
11412
10977
10701
10397
10287
10292
10504
11019
11659
12620
12875
13003
13047
13034
12891
12691
12393
12105
11882
11647
11289
11377
11481
11628
11824
12063
12183
12344
12467
12585
12803
12919
12931
12836
12669
12464
12183
12141
12161
12250
12286
12187
12290
12386
12433
12460
12457
12237
12051
11889
11716
11510
11210
11278
11490
11758
11935
12121
12707
12913
12999
12932
12669
11901
11609
11481
11361
11210
11059
11379
11789
12085
12235
12311
12368
12316
12193
12059
11962
11946
12015
12116
12247
12474
12726
12971
12912
12764
12575
12364
11824
11533
11327
11177
11124
11550
11940
12236
12458
12651
12769
12719
12621
12487
12332
12158
12027
12164
12356
12480
12438
12342
12730
12885
12920
12893
12790
12393
12191
12032
11829
11630
11515
11458
11479
11469
11469
11516
11773
11871
11892
11844
11839
11888
11951
12056
12168
12272
12349
12380
12360
12287
12256
12334
12699
12884
12975
12875
12750
12809
13074
13158
13205
13032
12639
11563
11054
10600
10162
9817
9605
9695
10022
10417
10493
10644
11036
11535
11981
12732
12994
13291
13741
14466
15610
15705
15567
15240
14794
13786
13123
12363
11504
10645
9885
9273
8826
8552
8503
9543
10368
11048
11657
12248
12771
13134
13136
12822
12393
11970
11670
11175
11104
11112
11222
11466
11705
11816
11825
12052
12373
12643
12984
13250
13525
13698
13718
13880
14232
14454
14471
14338
14162
13656
13067
12417
11860
11464
11086
10906
10653
10379
10101
9764
9583
9763
10194
10795
11298
11550
11652
11687
11712
12015
12450
12800
13012
13353
13399
13412
13284
12893
12384
12362
12682
12924
13187
13501
13737
13751
13868
14180
14453
13970
13305
12473
11480
10625
10211
10414
10404
10079
9791
9876
10076
9993
9786
10003
10809
11135
11386
11377
11208
11296
12366
13645
14555
14974
14909
14682
14704
14894
14804
14028
11636
10506
9584
8805
8281
8157
8590
9253
9910
10476
10981
11462
12129
12742
13641
14476
14877
14720
14327
13871
13387
13055
12930
12397
11510
10534
9731
9256
8917
9002
9640
10845
12092
13742
14483
15139
15461
15481
14607
13959
13223
12420
11686
11200
10382
10185
10446
10604
10567
10386
10698
11058
11743
12583
13592
13617
13428
13186
13121
13013
13630
13813
13602
12953
12161
11910
12136
12132
12055
11739
11240
10948
11109
11145
11213
11312
11199
10942
10814
11188
12052
13174
13764
13441
13035
12601
12208
12430
12665
12588
12323
12220
12074
11914
11701
11536
11499
11675
11499
11279
11323
11452
11368
10759
10462
10348
10423
10487
10654
11555
12170
12845
13423
13748
13781
13904
14167
14339
14239
13812
13830
13624
12992
12379
12197
12207
12337
12491
12434
12125
11807
11870
11914
11831
11394
10822
9985
9587
9133
8802
9045
9865
10805
11494
11907
12180
12429
12918
13636
14086
14167
14097
13690
13411
13210
13487
13994
13915
13528
13168
12903
12677
12468
12154
11906
11419
10651
9747
9010
8828
9183
9585
9975
10454
11160
11184
11336
11910
12634
13386
13461
13422
13380
13424
13422
13476
13486
13313
13070
12933
12583
12514
12582
12649
12720
12544
12360
12502
12661
12789
13042
13661
13975
13985
13475
12517
9996
8733
7660
6990
6851
7110
7503
8177
9060
10093
11089
11803
12213
12555
13447
13941
14372
14574
14545
14125
13889
13662
13400
13205
13261
13149
12802
12506
12651
13062
13323
13150
12935
12751
12563
12244
10988
10249
9495
9005
9264
9965
10661
11085
11642
12950
13111
13003
12678
12326
12597
12506
11965
11504
11342
11517
12651
12977
13096
13060
12891
12135
11914
11843
11872
12165
12528
12331
12055
11817
11704
11898
12634
12972
13218
13286
13271
13029
12697
12299
11912
11560
11140
10508
10890
11289
11102
10596
10646
10993
11310
11807
12325
12821
12596
12192
11885
11746
11883
12173
12141
12130
12016
11831
11773
11790
11766
11790
12043
12418
12832
12921
13019
13118
13173
13096
13029
12966
12889
12764
12324
12132
11980
11872
11807
11756
11886
12020
12188
12357
12389
12394
12776
12999
12932
12871
12991
12928
12792
12594
12287
11997
11463
11197
10994
10894
10870
10963
10917
10793
11004
11460
11896
12220
12289
12327
12343
12267
12133
12089
12069
12053
12030
12007
12146
12249
12270
12238
12151
11958
11865
11724
11633
11741
11976
12345
12413
12477
12573
12793
13126
13193
13170
13082
12966
12615
12383
12133
11858
11557
11309
11086
11132
11326
11520
11671
12010
12108
12122
12061
11980
11931
11833
11901
12087
12289
12425
12473
12445
12472
12542
12584
12593
12537
12538
12523
12413
12219
11937
11893
11856
11860
11922
12231
12449
12581
12629
12683
12735
12622
12429
12232
12021
11834
11469
11259
11083
10872
10701
10672
11305
11708
11999
12195
12324
12458
12424
12388
12371
12355
12250
12161
12127
12160
12170
12189
12442
12576
12668
12741
12853
13116
13277
13316
13242
12994
12662
11862
11491
11275
11223
11215
11020
10820
10775
10979
11325
12066
12249
12264
12205
12295
12560
12776
12731
12634
12536
12451
12192
12080
12071
12084
12017
11911
11648
11630
11781
11953
12038
12082
12074
12098
12165
12222
12289
12313
12282
12278
12303
12326
12290
12244
12253
12263
12238
12205
12174
12169
12186
12209
12228
12200
12179
12223
12426
12604
12706
12696
12678
12652
12594
12517
12230
11991
11709
11373
11000
10971
11265
11578
11767
11893
12203
12211
12275
12410
12597
12817
12944
12819
12582
12284
11950
11403
11160
11024
11041
11183
11319
11511
11655
11850
11992
11997
12195
12395
12528
12586
12586
12546
12497
12427
12304
12181
12108
12067
12186
12356
12482
12545
12592
12606
12604
12624
12615
12579
12444
12397
12403
12315
12113
11783
11706
11627
11675
11783
11722
11840
11813
11930
11915
11853
11847
11916
12011
12049
12012
11965
12003
12047
12021
11966
11960
12098
12240
12385
12486
12571
12678
12674
12541
12266
12108
12086
12517
12412
12282
12172
12059
11867
11862
11865
11806
11708
11812
11978
12102
12199
12260
12295
12292
12329
12326
12276
12238
12069
11931
11891
11948
11968
11938
11838
11770
11712
11654
11659
11852
12012
12158
12251
12329
12409
12633
12717
12796
12827
12810
12688
12622
12548
12451
12373
12336
12332
12249
12061
11818
11666
11655
11722
11703
11557
11385
11257
11219
11272
11400
11483
11574
11942
12095
12196
12279
12363
12519
12548
12538
12511
12465
12452
12464
12478
12474
12441
12431
12424
12422
12431
12451
12444
12332
12232
12111
12031
11952
11887
11909
11959
11976
11977
11987
12002
12043
12070
12073
12061
12061
12164
12197
12217
12225
12210
12205
12260
12351
12476
12541
12456
12350
12300
12237
12166
12095
11809
11681
11569
11468
11365
11256
11355
11471
11596
11736
11879
12068
12158
12251
12317
12371
12448
12493
12539
12574
12629
12671
12647
12598
12526
12424
12311
12121
12050
11967
11881
11822
11801
11800
11781
11730
11693
11712
11964
12153
12260
12293
12287
12261
12261
12270
12277
12259
12234
12162
12142
12202
12307
12378
12459
12466
12484
12533
12580
12634
12661
12630
12527
12386
12242
11919
11726
11527
11347
11219
11019
11013
11072
11139
11197
11271
11621
11911
12149
12310
12484
12890
13035
13077
13050
13014
12863
12825
12791
12733
12641
12473
11970
11713
11477
11265
11130
11295
11384
11436
11489
11575
11711
12004
12069
12084
12091
12151
12324
12364
12376
12372
12366
12303
12277
12276
12286
12296
12332
12419
12440
12464
12469
12467
12455
12447
12407
12384
12371
12434
12511
12516
12477
12391
12279
12003
11899
11799
11691
11582
11504
11550
11625
11707
11777
11815
11871
11955
12030
12079
12114
12193
12166
12166
12173
12197
12260
12350
12341
12333
12328
12304
12159
12072
12026
11985
11960
11974
12197
12383
12523
12572
12561
12488
12375
12238
12114
12003
11856
11805
11741
11701
11687
11680
11720
11763
11825
11806
11767
11830
11920
12015
12115
12216
12330
12466
12487
12440
12351
12278
12225
12249
12287
12321
12357
12430
12582
12560
12512
12524
12584
12582
12514
12443
12344
12263
12238
12215
12173
12146
12089
11989
11748
11692
11677
11698
11762
11838
11785
11691
11484
11209
10999
10938
11023
11173
11364
11570
11892
12090
12276
12427
12520
12668
12719
12750
12787
12810
12814
12786
12744
12698
12650
12642
12633
12570
12528
12487
12434
12321
12062
12002
11955
11909
11862
11806
11817
11798
11778
11787
11802
11729
11700
11765
11934
12176
12447
12429
12407
12383
12338
12239
12236
12263
12271
12217
12155
12072
12018
11951
11876
11837
11883
11886
11839
11767
11727
11794
12016
12041
12042
12070
12102
12153
12165
12186
12234
12292
12339
12402
12485
12561
12599
12619
12567
12507
12436
12348
12278
12180
12161
12112
12013
11894
11772
11655
11622
11581
11566
11609
11787
11958
12113
12202
12319
12730
12916
13043
13059
13000
12923
12749
12649
12499
12339
12168
11791
11578
11341
11157
11062
11052
11158
11206
11275
11330
11443
11616
11693
11812
11971
12123
12273
12525
12574
12591
12577
12546
12478
12469
12489
12504
12519
12490
12499
12541
12572
12563
12526
12432
12413
12416
12385
12313
12070
12011
12040
12044
11944
11870
11892
11913
11880
11841
11786
11509
11389
11338
11385
11515
11787
11858
11945
12062
12187
12291
12450
12517
12566
12560
12512
12454
12432
12335
12241
12191
12139
12094
12124
12209
12273
12271
12185
12158
12160
12166
12149
12131
12145
12065
11933
11847
11846
11896
11944
12018
12125
12199
12294
12310
12321
12350
12361
12303
12158
12123
12109
12104
12136
12237
12287
12303
12275
12237
12208
12103
12013
11951
11931
11886
11844
11774
11769
11874
12025
12217
12262
12272
12242
12201
12169
12071
12042
12059
12112
12167
12149
12107
12114
12158
12169
12145
12191
12329
12498
12640
12729
12703
12603
12427
12194
11907
11512
11547
11643
11739
11795
11815
11772
11794
11845
11912
11979
11995
11940
11921
11946
12006
12102
12255
12286
12293
12287
12262
12191
12182
12188
12205
12227
12251
12265
12243
12251
12268
12271
12263
12292
12328
12334
12309
12265
12258
12271
12269
12247
12222
12166
12073
11977
11900
11840
11724
11697
11696
11729
11811
11941
12206
12278
12293
12290
12293
12287
12254
12226
12159
12069
11961
11899
11913
11952
12027
12173
12369
12411
12423
12410
12392
12333
12233
12045
11908
11821
11758
11664
11653
11670
11693
11762
11979
12054
12130
12233
12324
12387
12531
12579
12565
12526
12494
12421
12398
12412
12399
12348
12236
12205
12158
12086
12008
11916
11789
11769
11754
11767
11768
11736
11757
11760
11749
11771
11846
12012
12077
12158
12216
12241
12267
12271
12284
12305
12336
12413
12415
12387
12330
12267
12233
12238
12268
12277
12279
12279
12203
12160
12120
12095
12077
12068
12081
12084
12110
12108
12133
12112
12022
11933
11930
11931
11967
12034
12100
12141
12146
12121
12055
12066
12054
11990
11950
12021
12090
12173
12246
12273
12291
12318
12314
12284
12179
12039
11993
12041
12091
12122
12138
12188
12451
12583
12683
12729
12676
12187
11876
11690
11667
11720
11773
11826
11845
11857
11899
11958
12110
12186
12217
12206
12176
12162
12088
12026
12023
12082
12158
12205
12136
12019
11971
12002
12118
12155
12147
12150
12173
12210
12199
12190
12163
12134
12127
12131
12097
12062
12013
11995
12072
12129
12160
12181
12199
12195
12176
12197
12206
12174
12156
12280
12307
12288
12253
12197
12129
12045
12099
12123
12105
12078
12094
12132
12197
12274
12298
12269
12096
11942
11881
11933
11978
11928
11950
11953
11939
11931
12036
12062
12049
12044
12056
12126
12380
12464
12476
12471
12422
12175
12081
12002
11938
11939
11948
11947
11971
12038
12122
12169
12131
12130
12155
12175
12236
12355
12369
12358
12337
12295
12271
12177
12153
12206
12261
12258
12133
12056
11999
11989
12001
12016
12034
12036
12019
12017
12036
12120
12113
12097
12078
12070
12078
12079
12105
12143
12180
12214
12247
12243
12229
12218
12189
12085
12089
12155
12218
12200
12090
11801
11678
11636
11679
11788
12166
12287
12349
12358
12372
12457
12485
12541
12570
12567
12510
12277
12152
12018
11916
11833
11736
11732
11716
11703
11708
11737
11782
11887
12002
12082
12186
12242
12226
12224
12243
12255
12223
12212
12205
12166
12145
12207
12339
12327
12275
12215
12209
12318
12347
12325
12262
12210
12179
12085
12064
12043
11973
11887
11833
11828
11859
11882
11894
11969
12214
12278
12276
12243
12223
12186
12141
12106
12093
12067
12005
12067
12196
12315
12377
12377
12204
12071
12002
11981
11965
11980
11985
12015
12042
12100
12161
12217
12222
12230
12206
12179
12196
12203
12205
12204
12183
12136
12152
12186
12217
12193
12165
12124
12096
12098
12134
12163
11950
11661
11400
11226
11108
11056
11218
11448
11732
12062
12370
12988
13250
13422
13479
13434
13352
13122
12949
12842
12726
12590
12213
11969
11751
11606
11550
11501
11558
11655
11760
11837
11886
11946
11946
11896
11827
11758
11860
11966
12040
12074
12091
12111
12078
11972
11880
11859
11876
11880
11875
11896
11970
12092
12411
12504
12573
12632
12630
12559
12341
12315
12281
12209
12202
12274
12251
12215
12159
12078
12024
11976
11925
11875
11870
11926
12091
12148
12182
12193
12206
12232
12142
12015
11888
11793
11705
11611
11601
11692
11849
12027
12343
12436
12501
12548
12610
12680
12662
12609
12534
12456
12399
12170
12019
11926
11884
11908
11954
11817
11684
11573
11502
11474
11361
11404
11561
11726
11867
12217
12460
12707
12835
12886
12933
13077
13111
13113
13095
13078
12911
