12286
12175
12127
12095
12096
12139
12173
12291
12287
12300
12275
12182
12132
12090
12044
12008
11937
11928
11925
11925
11934
11876
11870
11862
11866
11887
11943
12073
12106
12148
12177
12204
12222
12227
12245
12280
12284
12279
12268
12230
12209
12231
12260
12326
12345
12340
12304
12257
12186
12065
12038
12029
11999
12010
11971
11937
11919
11864
11896
12024
12159
12296
12476
12584
12625
12607
12506
12392
12301
12240
12172
12123
12099
12093
12122
12143
12083
12090
12098
12096
12086
12058
12045
12016
12036
12069
12139
12286
12343
12400
12472
12514
12523
12470
12415
12405
12373
12228
12120
12005
11917
11887
11889
11825
11849
11882
11847
11815
11810
11815
11810
11815
11850
11882
12024
12143
12302
12491
12628
12784
12773
12671
12525
12418
12165
12050
11944
11882
11878
11882
11850
11826
11837
11829
11832
11950
12053
12199
12408
12676
12888
13076
13039
12936
12821
12661
12394
12279
12223
12140
12053
11974
11829
11787
11762
11755
11772
11771
11743
11754
11792
11852
11940
11966
11982
12000
12042
12085
12140
12130
12116
12112
12123
12089
12083
12117
12119
12106
12138
12168
12150
12114
12052
12002
11992
12001
12062
12098
12097
12052
12056
12078
12136
12199
12286
12480
12549
12612
12675
12783
12772
12708
12676
12580
12462
12372
12263
12207
12167
12128
12081
11996
11988
12004
12070
12117
12138
12134
12101
12030
11962
11923
11942
11969
12017
12064
12139
12271
12302
12289
12252
12216
12150
12082
12055
12022
12026
12059
12130
12151
12107
12090
12065
12043
11989
11949
11956
11959
11971
12066
12187
12319
12426
12488
12548
12485
12368
12234
12139
12053
12000
11985
11956
11910
11893
11895
11923
11902
11888
11855
11819
11896
11947
12003
12029
12053
12095
12153
12217
12280
12351
12614
12672
12709
12711
12696
12667
12698
12705
12622
12490
12339
12186
12173
12169
12152
12182
12202
12200
12177
12136
12074
12002
11758
11649
11581
11561
11594
11644
11712
11723
11743
11793
11898
12179
12327
12437
12562
12707
12890
12899
12886
12760
12643
12592
12513
12484
12451
12356
12206
12015
11948
11902
11843
11795
11764
11797
11786
11829
11882
11931
12006
12047
12059
12060
12080
12088
12096
12107
12076
12012
11978
12015
12043
12090
12137
12182
12183
12205
12237
12276
12305
12345
12456
12435
12415
12337
12298
12238
12210
12166
12096
12056
12017
11984
11954
11950
11888
11912
12012
12054
12089
12129
12158
12180
12182
12196
12226
12222
12218
12221
12211
12177
12141
12122
12074
12045
11997
12000
12000
12007
12155
12258
12353
12414
12414
12418
12426
12446
12447
12383
12335
12367
12373
12354
12334
12332
12328
12352
12322
12300
12268
12111
12033
11970
11908
11808
11711
11660
11669
11676
11683
11655
11741
11797
11842
11876
11945
12065
12115
12188
12251
12312
12346
12349
12349
12308
12271
12263
12337
12424
12508
12630
12720
12812
12809
12737
12671
12599
12524
12415
12332
12236
12119
11998
11836
11576
11481
11416
11383
11403
11506
11553
11629
11706
11836
12204
12400
12542
12740
12848
12885
12852
12885
12900
12894
12881
12622
12424
12200
12040
11933
11917
11942
11984
12003
12029
12029
12025
12012
12070
12031
11998
11954
11947
11946
11945
11936
11961
12000
12007
12011
12007
11984
11886
11882
11865
11861
11847
11873
11955
12027
12078
12121
12170
12202
12196
12198
12180
12135
12144
12156
12130
12119
12191
12301
12508
12527
12474
12432
12386
12206
12081
11983
11923
11996
12086
12221
12265
12324
12367
12394
12475
12524
12545
12620
12582
12482
12243
12181
12100
12065
12019
11808
11675
11561
11473
11441
11424
11487
11634
11838
12063
12260
12632
12776
12823
12801
12786
12745
12691
12603
12471
12329
12168
11897
11799
11796
11841
11938
12218
12306
12329
12320
12269
12100
12023
12098
12196
12285
12368
12573
12566
12546
12475
12368
12254
12247
12266
12297
12314
12175
11896
11802
11704
11670
11650
11720
11748
11789
11833
11872
11905
11903
11918
11936
11957
11972
12067
12075
12108
12160
12258
12325
12354
12356
12329
12312
12306
12198
12216
12311
12357
12427
12495
12420
12330
12267
12262
12287
12249
12191
12152
12065
12067
12085
12070
11975
11871
11774
11722
11772
11849
11937
12032
12152
12320
12384
12439
12437
12421
12374
12314
12240
12142
12051
12026
12167
12188
12269
12405
12439
12298
12206
12065
11912
11788
11727
11804
11902
12018
12116
12236
12296
12291
12270
12263
12265
12234
12163
12000
11767
11626
11582
11663
11714
11823
11963
12076
12125
12202
12253
12260
12235
12268
12566
12728
12894
13058
13146
13015
12849
12755
12736
12651
12369
12281
12225
12197
12191
12169
11975
11873
11729
11630
11575
11629
11715
11831
11942
12084
12218
12297
12253
12187
12162
12125
12030
11961
11856
11758
11725
11724
11720
11705
11714
11755
11847
12066
12133
12175
12239
12357
12437
12383
12336
12311
12325
12413
12583
12498
12345
12234
12183
12124
12043
12029
12087
12172
12228
12217
12253
12326
12428
12522
12562
12558
12559
12523
12542
12466
12349
12217
12117
12040
12020
11925
11825
11643
11499
11410
11562
11594
11609
11668
11754
11789
11822
11946
12138
12343
12549
12944
13053
13126
13127
13091
12886
12818
12724
12586
12377
12187
11838
11676
11620
11592
11573
11550
11518
11459
11378
11256
11199
11354
11455
11586
11721
11885
12302
12487
12603
12663
12667
12719
12679
12661
12719
12848
12984
13281
13396
13453
13385
13238
12742
12500
12325
12236
12181
12076
11801
11717
11607
11482
11358
11185
11103
11063
11052
11006
11015
11277
11474
11703
11963
12162
12395
12453
12545
12633
12708
12757
12743
12800
12796
12718
12565
12334
12282
12256
12281
12270
12105
11974
11882
11780
11635
11512
11406
11355
11362
11449
11547
11720
11835
11932
12054
12236
12422
12637
12756
12772
12768
12720
12504
12374
12223
12129
12107
12170
12169
12085
11922
11743
11604
11844
12110
12346
12553
12710
12978
13006
12988
12900
12774
12669
12499
12429
12367
12331
12326
12286
12253
12244
12191
12087
11928
11864
11870
11873
11801
11684
11494
11533
11687
11924
12153
12355
12334
12236
12156
12037
11931
11916
12019
12101
12131
12173
12113
11990
11946
11961
12007
12077
12078
12067
12030
12115
12268
12418
12515
12592
12678
12785
12738
12610
12318
11957
11747
11711
11859
11945
12046
12008
11820
11668
11734
11863
12063
12274
12503
12708
12495
12236
12009
11863
11680
11687
11826
12025
12193
12341
12317
12320
12328
12401
12487
12680
12699
12683
12724
12722
12647
12448
12066
11600
11310
11256
11287
11303
11333
11398
11526
11840
12016
12228
12423
12538
12833
13010
13157
13286
13277
13104
12624
12339
12105
11991
11838
11556
11414
11292
11311
11478
11799
12388
12554
12660
12586
12499
12371
12211
11950
11742
11610
11558
11521
11697
11878
12050
12277
12916
13329
13674
13914
13991
13717
13511
13307
13052
12776
12598
12507
12468
12266
11854
11353
10454
10038
9727
9553
9513
9620
9781
10022
10293
10602
11149
11464
11798
12088
12263
12461
12947
13130
13230
13403
13637
13934
14050
14070
13926
13748
13376
13123
12951
12867
12834
12754
12424
12138
11834
11416
10902
10152
9906
9703
9511
9431
9481
9594
9792
10075
10514
11043
11651
12807
13309
13757
14146
14473
14739
14785
14877
14933
14900
14755
14325
14174
13917
13496
13054
11985
11569
11327
11183
11081
10885
10373
10174
10146
10140
10108
10115
10398
10860
11344
11866
12422
13280
13453
13635
13681
13417
12300
11749
11496
11354
11130
10472
10241
10092
9997
10002
10144
10297
10655
11027
11577
12211
12839
13630
14008
14561
15034
15262
15307
15317
15256
15055
14680
14380
13727
13282
12848
12431
11902
10664
10289
10254
10358
10335
10114
9885
10123
10510
11016
11487
11968
13223
13676
13880
13757
13430
13146
11882
11005
10240
9654
9316
9107
9101
9197
9422
9653
10005
11425
12229
13157
14269
15448
16473
17132
17024
16561
15859
15439
15402
15191
14691
13832
12703
11476
9308
8285
7655
7453
7427
7390
7505
7844
8254
8801
9512
10284
11132
12029
12990
14688
15288
15763
16048
16077
16123
15867
15424
14934
14532
14044
12994
12418
11807
11281
10821
9995
9765
9586
9446
9430
9582
9804
9948
10084
10179
10137
10045
9987
10145
10919
11592
12054
12167
12007
11863
12070
12394
12788
13196
13645
14035
13857
13880
14223
14560
14972
15250
15245
14894
14359
13765
12683
12133
11493
11003
10749
10554
10469
10386
10314
10298
10433
10565
10683
10751
10562
10142
10213
10287
10318
10452
10709
11275
11418
11701
12322
13238
14235
16386
17706
18568
18603
18157
16308
14947
13700
12407
11200
10258
9280
9192
9120
9116
9250
9537
9974
10501
11030
11379
11352
11022
11052
11092
11175
11159
10902
9898
9780
9947
10420
11190
12172
13275
14365
16533
17325
17683
17715
17331
14933
13810
13110
12614
12044
11491
10308
10134
10457
11025
11696
12543
12585
12549
12410
11935
11346
10339
9957
9548
9222
9079
8845
8352
7709
7485
7597
8018
8701
9677
11100
12786
14339
16276
17139
18280
19333
19602
18323
17413
16089
14647
13203
11922
10026
9464
9018
8556
8093
7827
7921
8205
8409
8626
8716
9053
9822
10816
11676
12075
12559
12817
13077
13340
13842
14594
15539
15518
15189
14749
14408
13916
14130
14692
15024
14855
14379
13797
13507
13202
12723
12033
10334
9688
9300
9072
8898
8561
8352
8475
8736
8709
8464
7932
7303
7055
7300
7927
8719
9444
10250
11420
13059
17162
18913
19987
20305
20393
20187
19184
17278
15469
14284
13313
11296
10649
10445
10337
10120
9447
9246
9071
9002
9108
9370
9774
10090
10241
10221
10067
9930
9819
9829
10053
10858
11083
11182
11007
10967
11567
11994
12249
12298
12339
12231
12677
13953
15656
17215
18179
18636
17967
16770
15187
13430
11053
10498
10173
9971
9752
9405
8941
8548
8569
9122
10094
11404
13091
13480
13916
14367
14842
14904
13402
12485
11994
11741
11254
9765
9291
9162
9349
9761
10260
10874
11639
12247
12707
13062
13575
13531
12750
12081
11962
12203
12599
13195
13616
13981
15182
15044
14164
13052
12127
11147
10676
10657
10829
10789
10556
10782
11636
12827
13873
14291
13615
13361
13005
12240
11332
10713
10535
10645
10845
10826
11055
12749
12550
11294
10128
9446
9138
9269
9640
10191
11392
11442
11409
12167
13501
15809
15969
15516
14803
14572
14893
15033
15669
16644
16917
15836
12563
10756
8647
6824
5691
5281
5272
5208
5396
6392
8300
10794
13417
15522
17940
18358
18610
18727
18406
16328
15340
14423
13303
11862
10468
9198
9115
8900
8277
7512
6635
6142
6115
6548
7436
8515
9511
10061
10027
10622
11957
15416
16895
17856
18202
17989
17475
16882
17345
17790
17596
17155
16788
15990
14657
12749
10364
6732
6139
5895
5895
6161
6626
6888
7036
7637
8648
9606
10247
10940
11412
11211
10687
10053
10351
11256
12611
14371
17681
18195
18272
18376
17974
17146
14288
12331
10831
10195
9822
9288
8728
8569
8672
8580
8671
9130
10517
11825
13674
15836
17891
19477
19346
17709
15507
13089
10775
7363
6448
6259
6661
7590
9258
11406
13687
15864
17143
16846
14359
13208
12113
11095
10216
9603
9372
9964
10630
11275
11913
12061
11484
10705
7939
6660
5941
6086
6774
8014
9427
10667
12217
14747
18120
21171
25203
25181
22998
19630
16558
12569
11199
9957
8799
8116
8078
8484
9110
9776
10424
10829
10705
10749
11300
11663
11484
10923
10835
11242
11688
12090
12363
12277
10198
9189
8658
8630
8923
9166
9405
9503
9917
11098
13388
15926
20343
22573
23495
22551
20165
17237
11526
9850
8917
8425
8169
8184
8409
8779
9270
9801
10054
9786
9620
9842
10315
10768
11357
11729
12057
12194
12313
12950
14007
13860
13041
11922
10786
9339
8943
8028
7581
8173
9547
11108
12547
13782
15117
16436
18149
18384
18198
17860
17242
14593
13424
12646
11989
11513
11245
9560
8716
8280
8283
8571
9123
9710
10052
10555
11296
11743
11894
12534
12504
12613
13094
13557
13458
13410
13607
13888
14279
14741
14306
13376
12290
11323
10701
10442
10541
10722
10789
10737
10741
10425
9658
8596
8117
9007
10576
11793
12329
12295
12620
13150
13729
14454
15263
15506
14751
13615
12704
12151
12108
12295
12485
12692
12832
12768
11547
11518
11620
11770
12238
13907
14602
15173
15450
15242
13946
12753
11421
10401
9899
9751
9713
9529
9176
9043
9316
9851
10420
11326
11716
12042
12437
12696
12660
12289
12466
12567
12350
12117
12138
11613
10932
10352
10446
11581
11788
11732
11790
12226
13022
14946
15719
16399
16624
15861
13095
11772
10690
9888
9602
9671
9869
10185
10786
12649
13418
13844
13738
13283
13058
13184
12959
12623
12249
11865
11097
10827
10712
10683
10750
10843
11281
11697
12032
12103
12030
11979
11877
11670
11399
11218
11807
12048
12181
12393
12524
12575
12841
13137
13457
13677
13475
12391
11265
10026
8874
8097
8087
8969
10542
12068
14437
15402
16038
16537
17104
17451
16496
15237
13824
12491
11363
9913
9735
9812
10098
10499
10948
11282
11261
11092
10801
10518
10680
11097
11664
12601
12996
13033
12746
12209
12186
12516
12410
11868
11270
10998
11427
12119
13081
14106
14724
14420
13940
13329
12787
12459
11740
11245
10891
10754
10928
11266
11554
11703
11892
12150
12540
12685
12605
12506
12458
12256
11856
11093
10871
10546
10306
10136
10228
10442
10950
11586
12273
14050
15032
15493
15296
14565
13641
12102
11645
11484
11338
11119
10833
11053
11455
11992
12579
13265
13902
13641
13291
12894
12503
11882
11435
10934
10488
10117
10017
10333
10625
10925
11263
11561
11679
12033
12659
13469
14388
15398
15470
15223
14665
13635
12293
10610
10279
9991
9751
9804
10140
10389
10636
12274
13420
14465
15212
15771
15901
15449
14723
13703
12711
11978
11164
10971
10874
10826
10814
11026
11094
11161
11223
11287
11350
11368
11359
11402
11428
11459
11326
11261
11270
11345
11435
11745
11990
12176
12249
12224
12161
12380
12699
13040
13166
13128
12945
12805
12693
12605
12457
12269
12007
11871
11839
11862
11891
12175
12304
12228
12172
12176
11981
11889
11845
11848
11966
12144
12434
12518
12601
12602
12316
11692
11444
11266
11199
11281
11484
12005
12414
12794
13040
13212
13709
13945
14097
13924
13476
12988
12250
11936
11482
11028
10811
10858
10974
11017
11081
11157
11562
11918
12250
12531
12951
13405
13809
13621
13420
13234
12970
12318
11985
11698
11506
11349
11224
11132
11157
11196
11259
11393
11808
12023
12224
12325
12311
12167
12173
12193
12222
12165
12063
12096
12093
11992
11952
11967
12019
12202
12363
12423
12479
12574
12462
12465
12606
12787
12843
12690
12581
12521
12565
12643
12565
12364
12316
12286
12202
12086
11839
11721
11656
11604
11579
11606
11631
11714
11787
11853
11931
12184
12298
12239
12068
11945
11773
11681
11635
11700
11827
11900
11765
11814
11910
12070
12343
12692
12733
12806
12823
12842
12676
12532
12522
12626
12709
12738
12703
12650
12558
12418
12280
12203
12201
12157
12061
11977
11918
11833
11817
11822
11836
11862
11867
11872
11866
11825
11750
11694
11655
11591
11577
11511
11434
11392
11437
11545
11715
11955
12365
12619
12888
13303
13708
13918
13531
13054
12616
12340
12091
11678
11576
11556
11603
11649
11827
12000
11960
11936
11915
11863
11464
11430
11405
11332
11312
11652
11979
12280
12620
13078
13532
13854
13776
13847
14018
13965
13238
12895
12660
12428
12116
11862
11634
11598
11610
11616
11630
11558
11502
11418
11360
11343
11537
11704
11844
11879
11952
12046
12018
11969
12008
12027
12030
11891
11808
11751
11706
11688
11634
11566
11516
11518
11636
11833
12244
12338
12450
12638
12874
13044
13142
13344
13560
13618
13466
13029
12778
12624
12455
12254
11887
11799
11758
11733
11697
11630
11653
11688
11709
11742
11779
11844
11864
11929
11965
11985
11986
11877
11860
11863
11862
11891
11909
11909
11966
12020
12134
12330
12389
12445
12530
12578
12600
12740
12755
12598
12428
12326
12224
12199
12197
12184
12151
12080
11878
11782
11772
11721
11692
11673
11617
11612
11613
11647
11674
11762
11854
12002
12187
12423
12830
13048
13158
13225
13219
13173
13039
12841
12573
12230
11865
11342
11097
10864
10721
10610
10843
11117
11433
11828
12271
12741
13516
13813
14087
14369
14493
14101
13687
13201
12797
12496
12064
11889
11765
11683
11580
11457
11286
11166
11042
11019
11033
11259
11370
11510
11651
11779
11877
12061
12155
12288
12406
12493
12648
12704
12662
12548
12489
12565
12574
12554
12518
12313
12148
11945
11868
11901
11920
11928
11830
11828
11828
11761
11706
11864
12003
11989
11998
12042
11960
12001
11924
11910
11906
11873
11834
11824
11866
11967
12103
12198
12325
12335
12333
12348
12469
12546
12595
12630
12604
12522
12451
12287
12272
12295
12290
12274
12165
12073
12002
11946
11948
11970
11992
11942
11831
11756
11667
11621
11707
11857
11995
12152
12424
12572
12740
12883
12955
13132
13386
13341
13225
13107
13050
12856
12621
12403
12254
12051
11920
11667
11603
11524
11481
11480
11582
11640
11703
11773
11870
12007
12099
12108
12138
12079
12026
11801
11674
11595
11574
11527
11504
11538
11582
11692
11826
11946
12242
12403
12553
12727
12885
12970
12882
12813
12752
12712
12729
12523
12458
12438
12413
12345
12136
12052
12011
12024
12033
12022
11998
11971
11964
11992
12037
12165
12150
12067
11918
11788
11538
11467
11454
11483
11535
11629
11947
12047
12085
12060
12053
12258
12393
12567
12709
12789
12800
12745
12688
12617
12635
12630
12690
12666
12579
12484
12396
12270
12149
12001
11831
11674
11541
11378
11295
11211
11132
11040
10978
11043
11174
11386
11651
11929
12497
12759
12987
13171
13322
13553
13630
13677
13697
13744
13577
13304
12995
12664
12392
12190
11886
11730
11619
11479
11363
11250
11304
11401
11490
11542
11594
11700
11697
11686
11667
11713
11892
11973
12074
12168
12232
12466
12613
12729
12746
12702
12623
12374
12249
12129
12039
11948
11758
11690
11687
11754
11874
12003
12156
12082
11928
11736
11630
11641
11735
11913
12135
12316
12489
12639
12631
12609
12514
12391
12276
12359
12434
12515
12635
12720
12650
12593
12551
12489
12456
12348
12350
12344
12206
11982
11700
11647
11625
11691
11725
11756
11773
11793
11843
11889
11935
11902
11955
11992
12047
12077
12174
12247
12339
12443
12561
12644
12707
12708
12706
12618
12448
12127
11991
11877
11929
12025
12014
11909
11918
11920
11930
11961
12105
12211
12302
12281
12195
12085
12079
12086
12122
12159
12206
12340
12456
12514
12498
12397
12058
11933
11873
11838
11840
11857
11804
11808
11856
11932
11986
12184
12320
12478
12489
12428
12367
12243
12162
12151
12122
12140
12157
12116
12091
12057
12036
12010
12082
12142
12261
12415
12525
12602
12568
12481
12349
12225
12125
12111
12117
12113
12126
12189
12231
12180
12167
12140
12092
12033
12008
12010
12007
11979
11972
11983
12008
12043
12101
12128
12229
12251
12279
12304
12324
12237
12176
12163
12184
12136
12065
11984
11978
12011
12088
12125
12090
12131
12176
12195
12175
12129
11971
11969
11956
11934
11927
11965
12053
12138
12168
12183
12239
12265
12329
12425
12488
12558
12795
12863
12799
12647
12457
12411
12430
12385
12318
12243
12157
12050
12068
12009
12019
12055
11991
11851
11734
11619
11550
11486
11483
11559
11743
11986
12140
12182
12175
12167
12159
12169
12196
12262
12357
12453
12552
12652
12717
12657
12563
12452
12352
12130
12055
11997
11936
11851
11808
11845
11920
11981
12057
12107
12218
12235
12239
12249
12253
12286
12297
12275
12252
12249
12239
12133
12080
12059
12078
12099
12143
12138
12116
12092
12058
12048
12094
12097
12078
12062
12058
12032
12025
12095
12106
12150
12257
12293
12279
12268
12291
12338
12317
12196
12212
12237
12211
12105
12095
12068
12069
12076
12101
12311
12428
12416
12345
12394
12510
12584
12577
12534
12461
12291
12187
12106
12019
11950
11893
11772
11675
11613
11514
11364
11272
11271
11305
11454
11670
11875
12357
12605
12753
12805
12855
12921
12858
12740
12576
12398
12245
12096
12032
12016
12027
12045
12213
12363
12459
12542
12589
12548
12488
12413
12312
12198
12102
11935
11925
11897
11889
11900
11961
11955
12040
12126
12151
12137
12160
12155
12146
12111
11997
11759
11737
11710
11779
11841
12052
12210
12267
12226
12155
12153
12179
12259
12344
12373
12413
12610
12690
12734
12734
12649
12518
12167
11929
11717
11552
11411
11228
11195
11199
11272
11493
11712
12113
12308
12398
12452
12495
12632
12693
12758
12841
12899
12813
12711
12621
12579
12508
12409
12268
12209
12187
12232
12270
12395
12362
12250
12110
12056
12027
12062
12052
11938
11843
11783
11704
11695
11710
11722
11740
11817
11887
11957
12034
12078
12130
12147
12195
12242
12283
12343
12323
12283
12266
12227
12179
12178
12170
12175
12213
12234
12221
12276
12313
12305
12282
12249
12245
12285
12248
12207
12213
12285
12335
12324
12352
12332
12272
12165
12162
12158
12118
12042
12054
12019
12000
12030
12107
12241
12523
12541
12576
12588
12573
12536
12533
12473
12425
12373
12245
11823
11626
11467
11322
11189
10986
10933
10982
11112
11274
11391
11669
11874
12092
12328
12514
12624
12692
12720
12693
12689
12740
12907
12978
12952
12856
12776
12557
12451
12381
12298
12224
12237
12238
12186
12109
12006
11885
11843
11825
11793
11834
11835
11759
11794
11841
11927
12016
12076
12097
12154
12160
12198
12273
12320
12277
12215
12186
12163
12153
12124
12120
12109
12133
12189
12231
12180
12126
12110
12122
12163
12192
12261
12318
12374
12415
12395
12388
12372
12310
12275
12287
12234
12160
12127
12102
12084
12199
12310
12436
12532
12530
12421
12383
12326
12231
12166
11968
11907
11811
11682
11539
11407
11269
11269
11343
11434
11569
11862
12025
12150
12283
12432
12590
12748
12790
12768
12792
12820
12654
12622
12641
12693
12750
12674
12573
12411
12185
11968
11759
11560
11530
11497
11508
11506
11564
11618
11701
11761
11756
11731
11751
11830
11938
12066
12210
12445
12547
12610
12631
12697
12769
12794
12690
12563
12421
12329
12195
12105
12027
12036
12047
12127
12135
12102
12105
12192
12204
12158
12125
12131
12131
12106
12004
11962
11959
11983
12035
12089
12183
12180
12169
12209
12279
12463
12501
12526
12510
12395
12118
12084
12068
12042
12037
12020
11947
11956
12079
12281
12496
12592
12533
12493
12456
12468
12420
12242
12170
12139
12087
12009
11915
11942
11978
11958
11924
11843
11754
11644
11510
11348
11276
11706
11971
12211
12444
12661
12847
12826
12847
12823
12742
12634
12359
12193
12043
11877
11733
11568
11523
11444
11362
11389
11414
11505
11574
11714
11855
12012
12400
12571
12659
12662
12666
12773
12749
12665
12580
12462
12357
12303
12272
12187
12107
12060
12084
12130
12154
12173
12205
12258
12240
12244
12268
12281
12304
12336
12323
12322
12301
12302
12325
12288
12182
12191
12237
12287
12444
12513
12589
12620
12516
12100
11942
11811
11778
11816
11961
12161
12204
12194
12145
12145
12085
12006
11878
11703
11477
11316
11248
11259
11322
11431
11523
11656
11737
11895
12213
12509
12737
12819
12839
12863
12949
13084
13122
13038
12995
12920
12895
12659
12446
12186
11948
11706
11458
11190
11085
10957
10963
11060
11382
11631
11881
12066
12245
12613
12773
12857
12853
12768
12656
12525
12454
12349
12230
12205
12350
12343
12303
12319
12336
12330
12340
12357
12302
12203
12131
12060
12067
12065
12011
11947
11881
11730
11673
11643
11644
11655
11866
12008
12180
12331
12500
12651
12640
12584
12526
12448
12399
12381
12475
12622
12654
12721
12711
12574
12424
12309
12182
11984
11636
11436
11288
11214
11195
11341
11402
11446
11511
11583
11510
11521
11613
11778
12009
12248
12640
12760
12836
12801
12779
12699
12715
12774
12896
12940
12884
12696
12626
12587
12535
12456
12333
12246
12124
11996
11909
11881
11833
11757
11677
11625
11637
11648
11698
11741
11699
11617
11736
11918
12113
12334
12548
12701
12594
12509
12412
12309
12204
12027
12026
12022
12031
12030
12082
12222
12278
12358
12382
12409
12327
12234
12111
12002
11891
11899
11959
11981
11992
12055
12104
12283
12493
12654
12774
12854
12829
12812
12791
12624
12436
12295
11951
11739
11614
11500
11480
11576
11617
11642
11677
11691
11897
12022
12168
12265
12416
12482
12498
12441
12338
12172
12047
12061
12175
12295
12342
12407
12448
12581
12594
12509
12327
12090
11824
11746
11748
11815
11850
11782
11682
11716
11809
11966
12094
12417
12593
12683
12726
12785
12849
12926
12973
12842
12614
12322
11803
11638
11561
11487
11465
11599
11726
11861
11876
11808
11732
11770
11829
11921
12034
12112
12099
12028
12003
11990
11990
12144
12195
12234
12327
12379
12430
12564
12660
12739
12808
12751
12465
12332
12258
12258
12306
12315
12134
12056
11989
11965
11939
12053
12063
12029
12043
12140
12248
12427
12523
12696
12788
12758
12411
12222
12080
11952
11804
11671
11626
11632
11717
11830
11926
11980
12011
11996
12011
12003
12027
12076
12167
12276
12340
12313
12315
12331
12355
12324
12224
12171
12162
12140
12169
12225
12447
12415
12207
11969
11814
11746
11749
11878
11978
12092
12251
12514
12499
12455
12380
12338
12285
12209
12186
12217
12312
12349
12073
11980
11842
11756
11745
11837
11934
12028
12148
12298
12505
12783
12833
12870
12832
12649
12055
11915
11788
11655
11573
11532
11710
11865
11982
12072
12149
12105
12095
12074
12034
12057
12102
12146
12097
12034
11972
11944
11825
11773
11843
11972
12174
12538
12599
12576
12553
12568
12530
12544
12595
12672
12761
12880
12489
12170
11924
11814
11834
11958
12125
12198
12255
12273
12296
12241
12145
12101
12025
11973
11835
11821
11846
11898
11922
11950
11944
11941
11989
12048
12164
12557
12651
12553
12349
12063
11851
11575
11524
11580
11702
11828
12018
12141
12254
12347
12456
12528
12724
12794
12862
12921
12901
12679
12556
12401
12222
12115
12119
12135
12084
11962
11791
11628
11384
11264
11200
11176
11280
11709
11970
12160
12388
12495
12535
12407
12447
12607
12767
12882
12808
12734
12630
12553
12455
12340
12307
12264
12126
11994
11854
11709
11660
11717
11928
12073
12087
12136
12219
12337
12496
12550
12396
12306
12169
11986
11793
11527
11470
11412
11419
11452
11514
11614
11818
11983
12185
12329
12350
12320
12387
12466
12519
12796
12935
12970
12845
12767
12709
12477
12364
12282
12238
12112
11818
11724
11700
11726
11801
11914
12200
12236
12263
12341
12390
12434
12449
12426
12383
12312
12106
12032
11995
11952
11876
11833
11792
11768
11743
11796
11837
12061
12345
12546
12633
12648
12651
12720
12750
12726
12715
12595
12016
11746
11553
11404
11277
11248
11287
11411
11618
11803
12082
12410
12536
12650
12736
12770
12754
12583
12480
18153
24623
25605
23921
23075
22284
21565
20933
19742
19177
18036
18812
18851
18504
12764
15555
17195
17094
14178
16710
16562
16329
9016
8
8
13
364
1191
1931
2616
3248
3845
4412
4926
5422
5879
6316
6750
7227
7774
8412
9309
10278
11265
12198
13185
13984
15341
15946
16300
16564
16737
16899
17048
17141
17163
17109
17014
16927
16794
16746
16729
16675
16306
15986
15811
16011
16234
16064
15869
15468
15223
15023
15399
15655
14647
13894
13451
13168
13053
13005
13015
13105
13329
13602
14594
13715
13395
14631
17292
15249
19505
18381
17553
14701
9045
7807
8072
9281
9543
9365
9686
10197
10704
11091
11353
11543
11965
12150
12297
12436
12528
12566
12537
12477
12335
12181
12266
11841
11786
11867
11984
12118
12640
12696
12669
12612
12701
12764
12831
12908
12837
12679
12517
12193
11929
12029
12202
12294
12381
12610
12619
12541
12427
12320
12118
12053
11995
11992
11974
11896
11860
11872
11904
11930
11999
12127
12189
12169
12116
12089
12081
12065
12073
12113
12227
12360
12610
12625
12594
12557
12493
12283
12189
12117
12057
12004
11886
11762
11723
11739
11797
11847
11884
11865
11906
12003
12085
12046
11922
11765
11641
11639
11685
11668
11639
11618
11584
11580
11782
11952
12113
12205
12270
12334
12500
12574
12664
12773
12818
12680
12687
12695
12632
12573
12428
12462
12421
12359
12311
12329
12249
12171
12074
11961
11864
11612
11508
11452
11396
11422
11511
11529
11511
11637
11708
11763
11873
11820
11895
12142
12278
12213
12137
12105
12137
12137
12122
11858
12030
12261
12434
12488
12400
12162
12157
12239
12231
12249
12183
12130
12059
12062
12018
11906
11830
11762
11765
11861
12040
12154
12177
12189
12174
12152
11715
11731
11869
11830
11688
11666
11673
11687
11759
11836
11961
11909
11870
11916
12034
12160
12363
12457
12351
12455
12468
12169
11762
11766
11849
12017
12216
12462
12490
12519
12517
12545
12405
12339
12689
12703
12485
12622
12526
12427
12190
12082
12092
12048
12102
12153
12172
12131
12093
12168
12213
12179
12088
11989
11880
11818
11751
11698
11755
11923
12022
12101
12144
12124
12145
12199
12244
12229
12167
12129
12163
12222
12282
12305
12341
12384
12417
12436
12439
12373
12233
12043
12020
12013
12022
11988
11906
11743
11704
11621
11588
11574
11689
11782
11880
11877
11857
11802
11828
11857
11918
11960
12033
12229
12421
12623
12827
12978
13046
13059
13042
12962
12755
12514
12080
11962
11941
11981
12024
11995
12010
12072
12118
12038
11889
11855
11866
11905
11926
11930
11861
11909
12025
12118
12221
12461
12548
12537
12477
12412
12339
12099
12046
12033
12073
12183
12504
12548
12494
12378
12227
12166
12139
12064
12024
11989
11950
11934
11931
11923
11916
11893
11843
11834
11808
11778
11747
11761
11705
11655
11703
11747
11812
11930
12004
12041
12057
11971
11864
11816
11879
11966
12169
12384
12637
12610
12641
12706
12795
13020
13154
13287
13338
13326
13229
12775
12393
11807
11508
11347
11222
11264
11373
11443
11551
11576
11471
11299
11192
11060
10884
10620
10476
10219
10149
10397
10769
11156
11540
11919
12572
13224
13973
14139
14265
14420
14625
14920
14833
14712
14597
14362
13933
13194
12803
12347
11892
11586
11200
11122
11062
10952
10889
10887
11043
11246
11265
11174
11252
11130
11014
10963
11039
11149
11478
11724
12041
12329
12637
13009
13465
13551
13650
13709
13799
13548
13312
13013
12681
12455
12169
11829
11899
11910
11588
11377
11696
11712
11683
11623
11571
10981
10800
10948
11535
11477
11321
11311
11365
11451
11525
11616
11980
12155
12329
12527
12727
12891
13338
13559
13752
13894
13855
13462
13232
12937
12682
12468
12236
11427
11243
11319
11135
10796
10519
10629
10741
10831
10990
11524
11741
11992
12323
12694
13045
13407
13515
13698
13948
14122
13951
13655
13278
12960
12718
12513
12091
11909
11780
11660
11507
11221
11176
11225
11309
11420
11658
11748
11820
11910
11971
12009
12158
12194
12114
11997
11956
11836
11675
11511
11368
11241
11188
11434
11616
11773
11961
12230
12658
12768
12941
13115
13276
13370
13482
13535
13553
13496
13371
12882
12654
12384
12074
11925
11769
11755
11754
11744
11714
11766
11898
11921
11838
11741
11656
11282
11037
10904
10775
10588
10414
10398
10580
10882
11099
11391
12345
12864
13135
13386
13792
14760
15074
15026
14547
14041
13854
13344
13060
12761
12599
12428
11950
11668
11385
11214
11049
10864
10571
10509
10576
10683
10784
10866
10895
10922
11013
11285
12367
12753
13043
13284
13393
13365
13096
12954
12852
12739
12640
12419
12307
12227
12393
12717
12984
13037
12931
12743
12580
12347
11950
11908
11774
11638
11604
11592
11467
11275
11109
11014
10963
11247
11499
11823
12193
12567
12918
12939
13032
13098
13003
12683
12158
12033
11817
11598
11490
11669
11625
11615
11759
12030
12351
12966
13169
13338
13428
13363
13246
13102
12736
12293
11834
10920
10408
10025
9774
9790
10031
10382
10572
10882
11267
11713
12112
12450
13604
14291
14752
14842
14660
14402
14673
14831
14672
14397
14183
13613
13036
12213
11375
10692
9831
9578
9400
9209
8833
8495
8226
8139
8256
8507
8933
9484
10073
10800
11727
12798
13844
15395
15822
16113
16320
16370
15627
15312
15237
15279
15028
14340
13224
13056
12732
12244
11820
11305
11026
10793
10581
10495
10459
10536
10593
10671
10795
10982
11373
11493
11629
11807
11965
11429
10913
10397
9875
9494
9392
9347
9500
9969
10600
11280
12711
13477
14362
15392
16402
16995
16655
16095
15341
14335
13210
11721
11492
11363
11208
11139
11127
11172
11123
11154
11210
11159
11012
10934
10715
10506
10433
10460
10549
10625
10579
10523
10628
10957
11185
11532
12026
12535
13441
13826
14185
14584
15070
15821
15848
15614
15321
14715
13615
11720
11218
10916
10678
10579
10714
10724
10652
10590
10891
11451
12361
12463
12476
12416
12310
11837
11458
11340
11580
11987
12432
13384
13790
14217
14264
13698
11984
11551
11280
11076
11001
10979
11188
11410
11663
12104
12664
13091
12993
12876
12685
12343
11259
10769
10468
10365
10350
10425
10521
10573
10555
10650
11009
12830
13981
15270
16705
17718
16622
15271
13848
12729
11945
11507
11113
11040
10909
10756
10613
10731
10786
10874
11043
11293
11510
11321
10947
10540
10195
9965
9800
9636
9284
8886
8725
8791
10051
11289
12628
14172
16034
17705
18854
18253
17230
15924
14351
11840
11387
11427
11868
12942
14579
16164
15543
14608
13767
13252
11817
10830
9954
9279
8834
8465
8362
8488
8604
8551
8713
9040
9519
10389
11360
12122
12651
12183
11669
11344
10657
9357
9618
10190
10764
11734
12641
13127
14258
15666
16997
18028
18850
19511
19132
17794
16270
14810
13432
11188
10378
9801
9547
9621
9733
9652
9515
9406
8907
8076
7203
6603
6552
7138
8256
9683
11096
12398
14851
16448
17986
18885
19021
18552
15776
13977
12511
11250
10231
8974
8764
8535
8444
8580
8817
8913
9025
9449
10181
10799
10715
9978
9421
9452
9731
10316
11654
12280
12892
13481
14045
14762
16576
17296
17695
17352
16232
13502
12911
12908
13273
13753
14150
14061
13654
13031
12008
10732
8213
7597
7572
7896
8391
8978
9674
10234
10915
11914
13141
14598
16999
17280
16993
16130
15083
12240
11067
10286
9904
9778
9831
9912
9840
9805
10223
10945
12969
14170
14892
14812
14197
13552
12234
11670
11294
11082
11071
10628
9510
7809
6258
5434
5491
6065
6768
7498
8178
9198
10798
13247
16329
19474
24499
25126
24264
22511
20120
15049
13142
11739
10788
10110
9632
9808
10065
10241
9904
9336
8837
8461
8027
7605
7516
7777
8277
8958
9813
10839
11854
12850
14419
14964
15290
15522
15502
14414
13726
13107
12373
11708
11171
10849
10793
10788
10958
11206
11742
11820
11898
11822
11506
10584
9674
8700
7948
7687
7633
7840
8184
8568
9258
10219
11511
13276
15719
21842
23888
24258
22904
20249
17105
12693
11941
11824
12043
12117
11143
10351
9525
8548
7812
7479
7456
7686
7877
8270
9184
10568
12133
13537
15596
15964
15949
15649
14869
12813
12035
11615
11318
11139
10960
11057
11276
11518
11725
11879
12224
12626
12970
12808
12209
11202
10787
10551
10389
10394
10473
10674
10748
10966
11292
11707
13007
13571
13906
14073
14284
14522
14137
13596
13035
12417
11862
11551
11647
11673
11550
11394
11171
10846
10327
9902
9912
10310
10793
11064
11107
11311
11924
12635
13361
14988
15946
16392
16123
15356
12854
11398
10364
9890
9723
9714
9622
9901
10527
11225
12281
13115
14250
15033
15191
14789
13356
12682
12104
11603
11497
12062
12470
12690
12734
12648
12463
12283
12243
12252
12200
12032
11614
11072
10234
9029
8119
7834
8035
8541
9004
9463
9981
10646
11593
14859
16947
18635
19569
19835
16907
15295
14238
13351
12471
11781
10958
10783
10669
10601
10539
10480
10363
10301
10222
10045
10082
10250
10453
10707
10892
10985
11303
11692
12295
12897
13364
13916
13919
13519
13042
12754
12728
12782
12706
12682
12747
12785
12495
12191
11857
11614
11458
11363
11112
10800
10452
10283
10354
10834
11178
11578
12021
12454
12803
12884
13094
13512
13988
14375
14284
13877
13490
13247
13070
12425
11956
11386
10792
10225
9463
9463
9290
9354
9804
10510
11235
12141
13137
14162
15055
16340
16569
16463
15864
14777
12658
11866
11189
10725
10451
10438
10525
10664
10881
11040
11152
11245
11412
11678
11836
11874
12020
12302
12564
12744
12869
13055
13490
13556
13349
13048
12712
12077
11862
11767
11742
11725
11694
11631
11610
11604
11603
11612
11726
11790
11815
11872
11926
12024
12113
12151
12141
12120
12087
12054
12066
12033
12005
12019
12023
12024
12090
12202
12275
12267
12064
12009
11956
11935
11847
11849
11914
11975
11995
12002
11988
11946
11921
12021
12230
12513
12949
12783
12389
12080
11990
12080
12139
12161
12197
12196
12174
12257
12435
12648
12908
13274
13377
12963
12490
12105
11792
11445
11285
11185
11133
11177
11317
11932
12295
12695
12877
13036
13116
12867
12517
12292
12056
11826
11704
11742
11757
11819
11982
12586
12861
12987
13064
13094
13023
12530
12223
12042
11947
11834
11706
11642
11627
11668
11717
11868
11908
11944
12030
12215
12317
12103
12158
12268
12343
12340
12307
12331
12292
12314
12485
12663
12628
12453
12268
12108
12002
11975
11970
11961
11934
11854
11749
11746
11731
11724
11748
11757
11803
11846
11886
11927
11970
12031
12073
12112
12145
12142
12125
12091
12094
12127
12139
12174
12170
12161
12165
12238
12292
12383
12405
12413
12403
12411
12395
12294
12239
12204
12168
12130
12044
11986
11994
11980
12024
12030
12165
12194
12191
12134
12061
11881
11780
11683
11669
11763
11851
12236
12425
12547
12637
12664
12561
12504
12475
12457
12388
12322
12320
12352
12315
12287
12354
12403
12127
11852
11713
11677
11733
11861
12012
12112
12205
12199
11942
11815
11835
11963
12092
12319
12371
12325
12259
12236
12520
12716
12813
12835
12850
12967
12965
12741
12311
11837
11452
11041
10954
10946
11035
11235
11472
12027
12331
12635
12892
13079
13294
13338
13295
13158
12873
12545
12104
11883
11663
11478
11347
11254
11238
11274
11301
11447
11966
12241
12465
12625
12635
12614
12328
12200
12116
12068
12077
12243
12376
12566
12713
12797
12777
12541
12343
12183
12085
11961
11842
11854
11838
11899
11954
12001
11993
11992
11977
11972
12027
16882
14551
12147
13345
11454
11046
10448
10018
10375
10772
10899
14048
12823
14568
17096
12890
8892
9391
10053
10478
10718
10713
10986
11582
11722
11956
12077
12132
12201
12209
12198
12232
12245
12261
12299
12409
12537
12228
12751
12528
12355
12410
12428
12374
12322
12282
12279
12250
12194
12130
12019
12012
12050
12066
12040
12067
12258
12315
12495
12606
12682
12634
15189
23265
25786
13688
1885
5853
24612
25156
24199
21259
4772
4
4
680
2770
4488
6034
7403
8402
9351
10063
10665
11157
11558
11877
12290
12568
12882
13138
13412
13841
14055
14236
14450
14620
15141
15350
15570
15727
15798
15717
15162
14866
14604
14361
14150
13788
13627
13430
13201
13107
12957
12917
12819
12777
12704
12652
12514
12500
12519
12555
12566
12422
12282
12138
12012
11931
11835
11769
11824
11950
12147
12354
12591
12621
12683
12644
12622
12609
12690
12837
13032
13178
13202
12884
12626
12354
12125
11950
11767
11655
11581
11468
11389
11383
11427
11469
11529
11616
11724
11949
12065
12246
12403
12590
12765
13121
13305
13395
13390
13264
12878
12697
12575
12470
12314
12147
11955
11837
11728
11643
11647
11719
11698
11671
11655
11659
11701
11702
11690
11716
11718
11754
11823
11854
11899
11943
11998
12138
12201
12241
12186
12062
11915
11657
11570
11507
11457
11470
11592
11720
11799
11941
12122
12567
12781
13015
13241
13327
13387
13427
13413
13348
13181
12951
12657
12531
12397
12184
11917
11666
11243
11174
11161
11195
11278
11560
11695
11788
11877
11960
12081
12328
12422
12487
12488
12404
12315
12283
12268
12251
12201
12124
12077
11989
11895
11822
11751
11571
11586
11683
11872
12108
12378
12404
12334
12262
12195
12144
12082
12067
12031
12014
11944
11937
11925
11837
11726
11655
11749
11852
11912
11924
11910
11910
11954
12011
12202
12381
12599
12843
12902
12911
12926
12928
12864
12703
12655
12660
12641
12555
12247
12117
11939
11706
11578
11557
11652
11682
11725
11762
11749
11747
11745
11868
12055
12203
12383
12452
12506
12544
12512
12488
12308
12200
12154
12132
12186
12242
12244
12203
12125
12053
12019
11768
11611
11566
11564
11574
11685
11717
11775
11855
11932
12120
12242
12366
12461
12543
12590
12559
12557
12581
12602
12599
12552
12603
12661
12676
12517
12288
11985
11908
11858
11813
11789
11942
12010
11993
11966
11964
11911
11834
11798
11788
11823
11867
11925
11949
11995
12066
12130
12324
12359
12352
12339
12309
12256
12234
12290
12294
12215
12203
12445
12565
12494
12413
12321
12185
11960
11949
11986
12054
12155
12194
12167
12119
12059
12000
11958
11877
11837
11796
11773
11722
11793
11964
12110
12220
12277
12354
12357
12324
12281
12280
12322
12299
12284
12276
12235
12185
12133
12187
12227
12238
12270
12350
12298
12249
12237
12232
12217
12144
12077
12016
12026
12060
12127
12110
12098
12024
12036
11991
12005
12091
12152
12185
12202
12252
12284
12339
12382
12421
12437
12397
12321
12269
12209
12109
11871
11817
11805
11791
11802
11952
12091
12237
12312
12289
12290
12240
12196
12163
12100
11982
11752
11757
11844
11992
12151
12267
12339
12333
12356
12367
12348
12268
12195
12130
12069
12047
12042
12044
12085
12116
12061
12070
12115
12106
12158
12193
12208
12281
12378
12485
12525
12557
12570
12431
12282
12195
12137
12091
12047
12177
12296
12337
12334
12371
12375
12321
12185
11998
11856
11720
11643
11558
11537
11550
11714
11794
11860
11860
11808
11782
11897
12064
12215
12418
12554
12573
12522
12473
12476
12541
12677
12828
12769
12679
12594
12465
12233
12067
11923
11799
11712
11580
11582
11649
11747
11846
11931
12076
12235
12293
12343
12326
12199
12067
11950
11862
11766
11803
12007
12145
12275
12342
12337
12522
12647
12749
12735
12702
12462
12363
12271
12252
12245
12188
11941
11881
11850
11779
11733
11808
11889
11987
12053
12099
12147
12351
12513
12602
12582
12443
12139
12068
12073
12133
12227
12278
12316
12240
12111
12022
11960
11917
11939
12047
12134
12160
12231
12328
12512
12731
12906
12967
12801
12677
12561
12428
12290
11948
11780
11658
11566
11496
11441
11365
11326
11303
11221
11172
11328
11532
11744
11946
12094
12319
12367
12350
12345
12377
12408
12443
12514
12624
12731
12842
12879
12863
12699
12577
12416
12296
12152
12148
12213
12258
12234
11985
11833
11711
11654
11581
11667
11745
11787
11842
11881
11932
12166
12363
12589
12783
12879
12791
12769
12742
12666
12559
12459
12293
12155
12073
12034
11979
11949
12029
12057
12071
11975
11842
11666
11618
11607
11655
11771
12139
12324
12505
12637
12680
12594
12465
12295
12120
11982
11913
11823
11834
11832
11832
11836
11920
11998
12101
12212
12300
12356
12380
12368
12307
12274
12235
12188
12182
12183
12198
12267
12498
12503
12506
12541
12536
12568
12552
12489
12445
12392
12329
12043
11928
11852
11800
11769
11726
11641
11616
11652
11735
11801
11954
12059
12153
12114
12063
12081
12039
11919
11888
11860
11822
11721
11710
11686
11691
11710
11819
11943
12134
12339
12521
12666
12724
12705
12714
12643
12600
12786
12949
13102
13199
13184
13046
12423
12075
11853
11710
11605
11627
11725
11798
11884
11970
11945
11919
11909
11960
12007
12077
12055
12100
12127
12158
12155
12212
12240
12287
12331
12356
12339
12332
12267
12210
12264
12311
12309
12329
12315
12264
12163
12049
11903
11917
11907
11890
11912
12115
12262
12359
12457
12492
12435
12327
12231
12144
12065
12036
12093
12136
12104
12106
12064
11969
12003
12030
12055
12055
12077
12129
12080
12001
11956
11929
11909
11852
11801
11763
11746
11980
12242
12441
12535
12564
12548
12429
12409
12367
12357
12360
12357
12384
12404
12448
12455
12374
12070
11912
11777
11681
11645
11833
11939
12083
12121
12112
11888
11859
11938
12067
12187
12297
12519
12577
12613
12583
12554
12484
12441
12419
12362
12276
12141
11911
11814
11749
11718
11720
11855
11942
12042
12166
12271
12291
12292
12313
12318
12286
12195
12015
12039
12151
12271
12503
12793
12788
12769
12706
12615
12538
12434
12390
12336
12208
12107
11873
11792
11674
11585
11441
11335
11176
11151
11178
11275
11399
11787
11981
12105
12167
12200
12395
12429
12473
12528
12580
12630
12636
12605
12586
12544
12490
12380
12363
12274
12201
12149
12112
12079
12154
12270
12348
12447
12580
12558
12501
12391
12173
12059
11894
11784
11710
11714
11794
12068
12144
12178
12168
12185
12196
12206
12196
12159
12156
12191
12257
12251
12303
12334
12342
12232
12178
12151
12166
12141
12156
12295
12315
12271
12231
12132
11860
11726
11604
11539
11550
11650
11702
11795
11839
11913
11954
12067
12197
12399
12591
12795
12998
13026
12985
12921
12828
12590
12249
12176
12120
12131
12109
11823
11701
11603
11492
11410
11475
11562
11737
11905
12088
12299
12706
12778
12819
12781
12678
12513
12403
12241
12124
12071
12047
11950
11927
11914
11907
11932
11906
11891
11911
11958
12008
12031
12092
12205
12297
12334
12359
12286
12189
12115
12067
12021
11951
11980
12024
12102
12154
12195
12223
12216
12229
12230
12256
12292
12328
12364
12354
12392
12412
12333
12260
12249
12242
12234
12175
12118
12081
12084
12158
12304
12359
12405
12408
12352
12250
11940
11892
11860
11894
11952
12015
12036
12077
12089
12121
12158
12200
12185
12198
12238
12252
12339
12398
12378
12353
12315
12277
12186
12168
12157
12174
12165
11954
11875
11796
11642
11520
11312
11323
11421
11628
11868
12095
12348
12407
12450
12568
12638
12657
12627
12576
12535
12474
12446
12357
12338
12299
12258
12233
12152
12115
12112
12085
12096
12202
12217
12185
12194
12158
12125
12080
12058
12041
12047
12092
12092
12061
12034
12000
11978
11983
12072
12089
12127
12160
12228
12586
12635
12662
12694
12688
12675
12590
12442
12223
12016
11811
11605
11556
11535
11519
11564
11604
11625
11628
11645
11630
11646
11743
11861
12035
12247
12490
12853
12859
12788
12713
12652
12561
12323
12318
12402
12538
12678
12944
12984
12833
12603
12415
12199
12181
12192
12189
12180
12082
11673
11480
11328
11264
11260
11193
11171
11274
11464
11798
12167
12658
12732
12713
12650
12602
12475
12413
12375
12348
12330
12254
12179
12082
11982
11896
11829
11848
11882
11916
11979
12044
12161
12212
12181
12195
12172
12165
12281
12346
12395
12418
12486
12583
12651
12700
12687
12624
12585
12386
12196
11995
11839
11742
11590
11536
11535
11580
11609
11674
11759
11815
11805
11876
11982
12197
12383
12578
12681
12641
12509
12470
12454
12460
12538
12644
12705
12669
12585
12488
12321
12100
12029
11964
11896
11855
11782
11682
11562
11394
11356
11451
11816
11995
12193
12395
12562
12790
12865
12888
12816
12694
12575
12358
12214
12057
11920
11852
11765
11726
11699
11712
11721
11718
11733
11791
11864
11943
12049
12367
12441
12449
12394
12337
11953
11764
11731
11829
12008
12171
12409
12557
12683
12709
12723
12688
12618
12444
12239
12094
12004
11998
12066
12082
12013
11966
11882
11930
12050
12172
12221
12224
12309
12357
12311
12217
12161
12172
12108
12021
12007
12053
12130
12149
12229
12281
12316
12330
12330
12246
12138
12028
11996
12141
12237
12269
12304
12317
12280
12207
12143
12136
12163
12126
12119
12121
12085
12027
11966
11764
11683
11691
11865
12048
12234
12447
12589
12680
12680
12563
12395
12321
12241
12182
12147
12141
12159
12116
12104
12097
12044
11835
11799
11739
11706
11732
11898
11887
11859
11792
11786
11871
11997
11983
12003
12073
12143
12537
12723
12745
12609
12480
12427
12431
12490
12535
12566
12587
12649
12673
12663
12610
12567
12552
12447
12266
12062
11803
11587
11312
11221
11190
11225
11270
11260
11367
11497
11627
11733
11879
12200
12357
12562
12801
12966
13090
13036
12982
12878
12720
12551
12510
12470
12420
12416
12402
12235
12153
12086
11993
11873
11754
11710
11697
11717
11793
11871
12033
12075
12057
11920
11769
11807
12006
12259
12488
12623
12625
12397
12245
12156
12105
12119
12442
12617
12684
12683
12632
12287
12107
11963
11835
11676
11578
11331
11287
11312
11365
11484
11798
11908
11964
12037
12083
12141
12335
12424
12505
12603
12705
12695
12644
12630
12655
12700
12652
12538
12416
12275
12116
11940
11714
11667
11723
11815
11922
12058
12175
12273
12415
12461
12490
12532
12523
12496
12460
12418
12294
12229
12211
12232
12209
12154
11844
11709
11611
11584
11625
11982
12179
12279
12290
12313
12320
12252
12213
12189
12167
12170
12194
12147
12028
11916
11867
12104
12165
12173
12196
12228
12305
12373
12383
12346
12256
12157
12045
12002
11948
11896
11861
11778
11766
11812
11907
12037
12095
12120
12084
12084
12127
12289
12709
12800
12861
12892
12887
12856
12676
12521
12407
12301
12185
11987
11902
11816
11722
11632
11557
11606
11691
11694
11675
11650
11600
11625
11765
11931
12107
12524
12627
12695
12760
12818
12776
12542
12379
12272
12175
12065
12015
12051
12101
12150
12192
12188
12031
11933
11900
11902
12025
12166
12222
12328
12376
12370
12254
12135
12084
12088
12061
12072
12109
12045
11978
11975
12042
12358
12476
12542
12538
12456
12352
12137
12021
11959
11943
11973
12024
12020
12041
12089
12113
12039
11990
11939
11976
12132
12312
12559
12678
12713
12717
12734
12679
12649
12644
12591
12483
12290
11840
11677
11564
11452
11333
11197
11203
11234
11279
11330
11376
11724
11980
12260
12550
12865
13147
13134
13015
12832
12643
12298
12194
12130
12081
12022
11899
11732
11710
11782
11898
12076
12526
12695
12748
12643
12544
12449
12442
12357
12260
12156
12048
12105
12247
12299
12295
12265
12204
12174
12140
12053
11937
11842
11726
11681
11636
11644
11741
12058
12104
12107
12192
12326
12472
12618
12530
12432
12371
12279
12093
12025
11983
11895
11793
11694
11722
11818
11995
12151
12285
12450
12501
12491
12477
12483
12446
12352
12241
12141
12051
12003
12248
12456
12546
12535
12482
12215
12002
11858
11791
11794
11906
12041
11967
11879
11807
11787
11870
11897
11966
12065
12149
12417
12574
12652
12618
12547
12463
12217
12061
11945
11923
11942
11991
12036
12093
12130
12092
12061
12033
12049
12139
12207
12286
12376
12429
12463
12360
12226
12104
12145
12161
12143
12158
12152
12069
12039
12039
12075
12066
12011
11990
11958
11966
11961
11953
12202
12308
12412
12519
12574
12552
12523
12525
12496
12458
12436
12422
12437
12391
12336
12292
12038
11904
11773
11662
11622
11538
11568
11627
11667
11690
11750
12307
12581
12756
12866
12884
12714
12544
12370
12204
12048
11956
11714
11673
11630
11591
11584
11717
11813
11915
12041
12162
12433
12472
12500
12516
12485
12364
12219
12249
12293
12346
12484
12578
12540
12524
12472
12413
12314
12136
12092
12084
12051
12053
11848
11682
11554
11475
11466
11527
11789
11913
11979
12079
12206
12301
12321
12310
12278
12205
12152
12197
12267
12290
12281
12217
12306
12393
12522
12593
12604
12509
12434
12378
12350
12283
12190
12280
12347
12350
12358
12372
12247
12107
11905
11787
11742
11729
11782
11841
11920
12016
12040
11935
11962
12027
12051
12058
12045
12056
12065
12108
12229
12285
12336
12351
12361
12350
12306
12105
12027
12024
12078
12212
12375
12396
12400
12279
12086
11860
11589
11628
11686
11775
11832
12090
12266
12400
12533
12576
12545
12324
12188
12070
11997
11921
11733
11646
11705
11889
12206
12487
12959
13168
13312
13340
13255
12987
12893
12775
12644
12435
12120
12077
12017
11927
11753
11483
11137
11103
11154
11295
11495
11795
11884
12023
12192
12365
12515
12693
12790
12824
12784
12711
12411
12286
12224
12127
12055
11894
11882
11869
11798
11763
11743
11719
11752
11789
11818
11821
11952
11921
11889
11852
11845
11855
11971
11993
12039
12099
12125
12217
12285
12357
12389
12471
12569
12740
12726
12712
12699
12755
12735
12664
12647
12608
12503
12168
11907
11647
11523
11483
11519
11705
11777
11883
12041
12232
12340
12320
12244
12132
11999
11912
11736
11747
11834
11905
11974
12083
12074
12087
12163
12310
12779
12990
13013
12986
12973
13001
12935
12778
12629
12508
12409
12158
11953
11709
11473
11284
11182
11005
10981
11052
11147
11270
11506
11594
11688
11856
12076
12560
12772
12928
13030
13132
13233
13423
13437
13320
13063
12817
12534
12386
12245
12114
11910
11620
11054
10883
10808
10845
10921
11211
11413
11641
11818
11965
12087
12407
12637
12757
12928
13079
13242
13225
13169
13077
12905
12551
12475
12418
12376
12376
12350
12365
12310
12183
11997
11782
11460
11368
11303
11291
11298
11324
11588
11782
11857
11843
11852
11908
11933
11965
12025
12095
12389
12592
12742
12808
12838
12846
12764
12641
12513
12419
12319
11980
11876
11808
11786
11800
11860
12025
12106
12190
12213
12282
12366
12291
12151
12064
12003
12051
12325
12387
12384
12366
12334
12289
12217
12184
12131
12109
12072
12052
12015
11959
11912
11905
11853
11875
11943
11962
11984
12082
12055
12043
12099
12181
12273
12519
12575
12607
12594
12578
12614
12594
12468
12333
12208
12114
12013
11935
11885
11869
11865
11800
11741
11714
11678
11616
11664
11642
11571
11587
11640
11712
11936
12074
12233
12391
12534
12796
12893
12937
13003
13033
13040
13008
12978
12920
12770
12513
12086
11924
11791
11671
11493
11332
11315
11375
11520
11718
11926
12272
12325
12395
12456
12516
12504
12483
12472
12492
12546
12574
12460
12362
12274
12148
12042
12007
12000
11978
11946
11911
11796
11708
11596
11538
11562
11641
11867
11997
12074
12135
12167
12108
12111
12221
12279
12306
12285
12436
12624
12799
12900
12890
12740
12621
12524
12351
12165
11771
11678
11642
11649
11722
11866
12079
12057
12015
11968
11971
12122
12182
12236
12173
12070
11931
11618
11422
11286
11274
11358
11975
12352
12703
12994
13186
13226
13176
13209
13263
13253
13173
12899
12601
12256
11934
11700
11500
11483
11515
11618
11683
11712
11800
11876
11923
11940
11983
12112
12171
12229
12259
12240
12178
11899
11865
11828
11907
11894
11924
12046
12227
12386
12512
12690
12717
12749
12834
12880
12905
12757
12611
12395
12157
11897
11570
11502
11461
11350
11222
11135
10932
11025
11123
11298
11506
11987
12304
12611
12896
13128
13332
13329
13312
13239
13160
13026
12721
12495
12204
11907
11705
11361
11303
11297
11365
11503
11652
11789
11921
12044
12113
12149
12290
12290
12244
12217
12125
11942
11636
11496
11468
11600
11730
12172
12467
12776
13093
13434
13966
14124
14213
14228
14100
13832
12945
12429
12048
11730
11507
11213
11199
11136
11144
11213
11234
11190
11134
11079
11071
11069
10959
10894
10782
10704
10714
10956
11038
11092
11250
11563
12033
13283
13779
14238
14529
14718
14988
15113
15200
15102
14698
14126
12961
12386
11875
11535
11423
11439
11504
11433
11289
11182
11104
11111
11143
11135
11022
10667
9658
9329
9240
9267
9371
9527
9788
10148
10572
11024
11556
12332
14172
15184
16127
16734
17067
17178
16868
16321
15568
14689
13843
12343
11860
11476
11148
10867
10305
10125
9935
9746
9567
9413
9375
9458
9573
9677
9801
10009
10303
10718
11673
12259
12812
13247
13422
13632
13688
13508
13170
12957
12960
12986
13063
13132
13126
13099
13237
13094
12712
12368
12209
12288
12333
12329
12239
12071
11929
11693
11757
11959
12169
12294
12297
12362
12190
11839
11597
11378
10818
10365
10048
9902
9870
9984
10072
9982
9925
9986
10944
11814
12755
13764
14834
16144
18371
18640
18400
17711
16776
14747
13839
13034
12316
11640
11020
9940
9487
9081
8791
8663
8617
8583
8544
8469
8508
8487
8417
8560
8764
9063
9606
10390
11390
12559
13800
15353
15739
15964
16130
16330
16615
16635
16567
16235
15642
14969
13701
13100
12463
11851
11312
10465
9782
9079
8490
8108
7879
7856
7899
7979
8074
8220
8505
8979
9588
10230
10954
11839
13933
14821
15555
16077
16302
16397
17153
17436
17330
16817
16011
14037
13112
12177
11336
10861
10611
9872
9558
9258
9100
9135
9224
9244
9388
9657
9953
10319
10916
11569
12114
12695
12905
13094
13416
13711
13901
13433
12974
12491
11856
11235
10755
10722
10642
10749
11064
11767
12073
12401
12726
12995
13121
12857
12670
12648
12776
12914
13298
13530
13690
13886
14020
13924
12927
12204
11491
10814
10290
9709
9608
9500
9463
9874
10603
11469
12360
13027
13449
14251
14223
14010
13746
13602
14035
13980
13913
13849
13612
13312
12206
11518
10980
10727
10629
10562
10528
10421
10220
10063
10024
10455
10870
11146
11302
11353
11194
11336
11513
11739
11981
12277
13054
13386
13764
14319
14853
15251
15077
14790
14738
14617
13958
13504
12965
12260
11585
10953
10229
10152
10269
10434
10543
10662
10838
11075
11228
11286
11243
11405
11623
11798
12022
12294
13042
13106
13084
13174
13014
11391
10173
9470
9306
9541
9874
10193
10548
10981
11522
13019
14101
15235
16504
17700
18025
17315
16351
15477
14419
12219
11463
10862
10355
10048
9878
9812
9980
10295
10965
11166
11201
10997
10697
10560
10536
10500
10412
10186
9744
9697
9779
10040
10489
11037
11583
12168
12623
13377
13739
13750
13380
13334
14683
15026
15024
15092
15218
15222
15025
14687
14302
13915
13721
13596
13311
12963
12608
12116
10647
9906
9268
8800
8446
8181
7994
7710
7518
7602
7883
8498
9434
10551
11746
12955
14334
16606
17142
17255
17127
16737
14957
14171
13699
13159
12430
11518
11398
11344
11314
11265
11174
11123
11104
11117
11093
11051
10977
10971
10937
10848
10769
10776
10938
10910
10835
10590
10401
9654
8882
8393
8422
8925
9884
11193
12545
13805
14860
15647
16942
17557
18146
18313
18024
16958
15662
14391
13341
12420
11592
10664
10581
10612
10823
11257
11650
11342
11136
11056
10954
10746
10261
10054
9727
9522
9256
9067
9191
9530
9978
10587
11204
11686
11675
11826
12288
12888
13427
13895
13846
13693
13589
13600
13541
13575
13795
14400
15209
15835
15863
15263
14431
13463
12317
10419
9878
9707
9804
10203
10776
11437
12024
12147
11690
11090
10491
10006
9694
9568
9502
9601
9705
9807
9819
9993
10277
10792
11548
12403
13200
14458
14940
15380
15667
15787
16067
17349
17546
16680
15082
13592
12164
11571
10903
10322
10020
9874
9748
9598
9331
9253
9318
9637
10236
10841
11131
11473
11767
11633
11736
12320
12946
13304
13674
14247
13997
13220
12194
11415
11076
11326
11587
11869
12218
12672
13439
13478
13337
13225
13276
13149
13025
13192
13484
13602
13304
12310
11913
11579
11224
10935
10717
10438
10071
9888
9979
10211
10454
11009
11378
11970
12501
12932
13364
14183
14185
13763
13136
12448
11218
10904
10958
10920
10820
10765
10637
10512
10517
10707
11159
12500
13494
14451
14998
15253
15345
14830
14160
13556
12777
11952
10758
10600
10852
11686
12805
13943
14320
14351
13783
12878
12142
11575
11445
11508
11620
11751
11931
11738
11390
10951
10515
10374
10411
10508
10685
10861
11160
12311
12609
12554
12546
12718
12686
12355
11907
11519
11269
11356
12363
12857
13186
13641
13987
12727
11674
11069
10813
10730
11258
11459
11500
11643
11725
11810
12338
12740
12989
12965
12794
13819
14493
14973
15248
15331
15279
14798
14033
13274
12688
11907
10398
10082
9943
9610
9196
8734
8282
8094
8174
8511
9185
10027
10692
11312
13677
14597
15283
15882
16495
16765
15992
14997
13984
13241
12500
11295
10910
10673
10528
10496
10419
10325
10207
10122
10029
9872
9805
9774
9729
9701
9704
9902
10402
11067
11863
12757
13758
15943
16776
17414
17701
17172
16051
13527
12636
12066
11479
11069
11190
11472
11407
10900
10250
9783
10141
10688
11282
12084
13126
14235
15052
14299
13410
12853
12609
12237
12330
12637
12861
12885
12820
12540
12297
11887
11363
10866
10242
10107
10067
9869
9644
9603
9799
10158
10516
11561
12303
12817
12660
11708
10684
9983
9810
9554
9501
9786
10665
12023
13731
15585
17445
20384
21013
20492
19069
17008
13471
12001
10764
9749
9020
8601
8377
8302
8441
8761
9198
9744
10371
11005
12135
12708
12823
12536
12274
12402
12060
11548
11125
10727
10558
11242
12250
13451
14719
15956
16932
16589
15933
14906
13883
13007
12640
12156
11591
11026
10561
10144
10066
9992
9978
10084
10276
10542
11006
11217
11320
11310
11311
11413
11422
11485
11560
11550
11651
12293
12647
13134
13439
13282
12285
11565
10864
10315
10074
10262
11224
11747
12418
13162
13766
14694
15140
15163
14863
14448
13772
13488
13034
12609
12328
12140
11855
11763
11671
11556
11472
11506
11470
11446
11425
11404
11502
11703
11754
11730
11663
11626
11495
11326
10924
10061
9169
8631
8527
8746
9074
9504
10036
11263
12129
13349
14853
16431
18431
18574
18546
18144
17197
15853
13431
12691
12048
11470
11010
10583
10525
10502
10513
10590
10689
10877
10976
11088
11166
11192
10968
10795
10677
10710
10814
11209
11473
11789
12175
12625
12999
13311
13360
13323
13117
12831
12336
12240
12211
12215
12206
12183
11847
11598
11473
11324
11208
11317
11439
11616
11821
12042
12275
12818
13163
13556
13739
13654
13309
13148
12978
12697
12271
11582
11403
11307
11305
11352
11428
11501
11526
11651
11850
12099
12418
12547
12674
12896
13020
13024
12768
12560
12387
12279
12234
12004
11623
11104
10592
10093
9822
9909
10062
10235
10448
10704
11090
11659
13311
14306
15221
15969
16527
16515
15810
14908
14093
13379
12697
11802
11535
11328
11138
10876
10564
10315
10056
9939
9961
10045
10223
10585
10788
11087
11482
11912
12367
13321
13705
14162
14439
14317
13237
12856
12600
12470
12381
12083
11986
11846
11506
11158
10925
10699
10798
11032
11247
11447
11906
12176
12486
12825
13134
13435
13802
13694
13492
13288
13118
12557
12258
12034
11895
11823
11800
11825
11821
11772
11645
11591
11628
11676
11766
11849
11924
11900
11863
11886
11911
11934
11966
12036
12069
12057
12024
12010
12084
12113
12155
12153
12126
12027
11810
11809
11868
11885
11904
11924
11933
11982
12151
12321
12625
12772
12914
12992
13003
12973
12722
12590
12375
12173
12060
12016
12084
12158
12133
12061
11968
11664
11485
11354
11230
11051
10924
10898
10986
11145
11394
12068
12503
12991
13595
14181
14645
14792
14649
14361
14057
13814
13027
12549
12134
11831
11665
11611
11514
11389
11304
11255
11117
10938
10901
10963
11065
11227
11347
11663
11796
11882
11898
11884
12070
12297
12567
12782
12959
12884
12679
12420
12177
11968
11855
11915
11997
12053
12093
12129
12294
12556
12757
12850
13560
13196
12089
11997
11958
11952
12055
12164
11998
11879
11824
11678
11249
11076
10946
10941
10937
10991
11292
11569
11709
11753
11899
12466
12655
12785
13145
13425
13549
13485
13425
13337
13259
13139
12731
12481
12258
12075
11914
11638
11573
11544
11615
11679
11733
11745
11761
11812
11883
11971
12152
12237
12252
12186
12118
12124
12264
12285
12240
12177
12131
12048
12065
12097
12191
12222
12268
12281
12193
12032
11923
11836
11856
11909
11949
11987
12056
12070
12064
12013
11932
11885
11883
11924
11841
11775
11807
11907
12031
12076
12071
12021
12026
12088
12483
12721
12962
13242
13607
14041
13946
13708
13439
13203
12862
12623
12507
12477
12410
12228
11923
11788
11683
11629
11611
11677
11661
11589
11535
11560
11550
11598
11677
11736
11773
11831
11879
11904
11883
11816
11715
11601
11414
11419
11464
11528
11512
11651
11783
11963
12091
12196
12410
12608
12726
12713
12741
12655
13020
13107
13070
13052
13027
12845
12728
12575
12389
12214
12129
12109
12106
12115
12094
12048
11910
11883
11855
11855
11810
11631
11574
11560
11551
11577
11608
11687
11794
11974
12137
12285
12290
12192
12086
11949
11924
11996
12178
12200
12416
12469
12382
12573
12706
12737
12731
12747
12794
12859
12783
12705
12621
12638
12615
12579
12506
12358
12156
11783
11665
11552
11488
11455
11436
11387
11405
11422
11395
11418
11473
11627
11733
11798
11858
11907
12020
12144
12252
12317
12403
12621
12743
12880
13067
13179
13043
12845
12625
12415
12273
12190
11983
11904
11776
11719
11692
11840
12009
12139
12227
12315
12398
12488
12473
12350
12177
12075
12151
12006
11761
11470
11293
11279
11385
11564
11730
11893
12058
12355
12575
12793
12938
12989
13141
13289
13309
13205
13050
12903
12636
12600
12577
12517
12398
12130
12064
12100
12134
12100
12020
11838
11777
11732
11724
11711
11656
11648
11647
11605
11586
11585
11569
11625
11661
11690
11699
11751
11796
11860
11896
11948
12051
12044
12049
12113
12196
12301
12494
12628
12734
12772
12736
12504
12339
12249
12153
12106
12167
12188
12162
12122
12115
12154
12361
12384
12371
12352
12341
12327
12346
12327
12305
12234
12136
11734
11437
11213
11171
11240
11695
12039
12271
12345
12382
12466
12560
12583
12624
12669
12684
12641
12520
12440
12373
12334
12468
12651
12754
12799
12794
12803
12586
12382
12161
11955
11815
11778
11789
11790
11767
11709
11691
11713
11786
11884
12012
12109
12104
12043
12020
12003
11963
11830
11907
12023
12105
12119
12103
11986
11932
11908
11871
11854
11933
12030
12172
12335
12456
12475
12408
12379
12326
12303
12240
12090
12055
12054
12096
12163
12268
12538
12610
12645
12686
12747
12284
12040
11863
11734
11596
11561
11642
11733
11810
11874
11851
11976
12107
12258
12348
12420
12527
12466
12328
12190
12120
12141
12257
12338
12382
12466
12597
12654
12535
12411
12281
12208
12295
12301
12244
12131
12086
12065
11976
11951
11960
12031
12123
12183
12205
12184
12204
12251
12272
12225
12211
12189
12099
12005
11884
11816
11777
11805
11824
11911
11942
11993
12056
12140
12177
12152
12205
12198
12236
12264
12321
12235
12165
12094
12049
12020
12064
12233
12445
12501
12500
12374
12264
12128
12024
12022
12001
12014
12053
12096
12162
12259
12246
12250
12295
12339
12336
12220
12070
11961
11952
11966
12036
12296
12401
12471
12512
12441
12243
12169
12100
12001
11921
11847
11883
11891
11950
12049
12197
12217
12172
12156
12114
12072
12035
11989
11903
11847
11812
11871
12123
12172
12231
12424
12584
12736
12693
12603
12556
12485
12426
12124
12099
12159
12198
12211
12142
12109
12111
12147
12165
12141
12060
11921
11772
11638
11556
11478
11537
11647
11812
12034
12345
12471
12640
12754
12764
12688
12321
12177
12136
12130
12126
12196
12235
12308
12363
12473
12529
12462
12366
12233
12099
12047
11801
11613
11487
11497
11609
11657
11709
11856
12090
12322
12497
12702
12716
12648
12537
12439
12264
12134
12167
12221
12255
12248
12130
12074
11990
11912
11828
11738
11754
11782
11794
11827
11944
12036
12089
12168
12237
12276
12351
12358
12392
12470
12542
12486
12384
12378
12438
12552
12648
12684
12655
12525
12330
12143
11982
11975
11991
11979
11967
11983
11937
11950
11974
11924
11887
11935
11980
12037
12082
12154
12203
12196
12122
12126
12114
12083
12147
12201
12204
12177
12106
11999
12027
12044
12064
12098
12181
12288
12310
12257
12172
12034
11787
11734
11784
11953
12154
12610
12893
13056
13049
12944
12774
12568
12451
12244
11914
11572
11117
10990
10931
10960
11094
11374
12045
12302
12567
12808
12947
12971
12934
12838
12756
12737
12748
12655
12482
12220
12024
11863
11689
11730
11786
11801
11851
12005
12013
11983
11944
11901
11879
12042
12074
12105
12091
12047
12195
12353
12487
12535
12505
12433
12185
12067
11953
11922
11951
12056
12139
12241
12321
12381
12404
12372
12301
12200
12126
12117
12210
12191
12160
12130
12128
12155
12160
12191
12186
12185
12184
12121
12083
12058
12013
12043
12151
12158
12174
12194
12181
12155
12132
12081
12045
12037
12042
12147
12132
12146
12178
12264
12201
12123
12068
12031
12106
12244
12628
12762
12845
12823
12745
12528
12376
12222
12078
11934
11805
11542
11363
11189
11069
11030
11087
11293
11481
11712
11971
12615
12773
12865
12919
12862
12731
12360
12214
12153
12112
12001
11862
11914
12065
12247
12422
12589
12913
12980
12973
12922
12868
12603
12437
12208
12029
11942
11912
11996
12115
12185
12168
12058
11988
11915
11807
11789
11781
11720
11651
11641
11671
11734
11799
12004
12083
12132
12178
12242
12422
12447
12473
12411
12348
12277
12236
12229
12245
12238
12226
12198
12174
12169
12193
12281
12516
12470
12365
12261
12187
12093
11885
11872
11908
11997
12157
12543
12677
12712
12617
12537
12461
12187
12010
11880
11788
11719
11726
11654
11538
11438
11381
11332
11422
11548
11751
11959
12181
12635
12844
12975
13000
12931
12524
12298
12165
12079
11980
11951
11937
11998
12126
12304
12426
12554
12610
12660
12701
12750
12720
12427
12296
12138
11941
11831
11774
11799
11834
11837
11831
11779
11775
11787
11830
11853
11903
12035
12087
12096
12102
12138
12176
12210
12269
12365
12455
12498
12384
12361
12341
12342
12424
12515
12484
12424
12307
12194
12159
12130
12086
12109
12135
12144
12128
12096
12057
12048
12025
12026
12102
12157
12156
12083
11997
11829
11805
11811
11886
11945
12154
12191
12205
12257
12315
12342
12323
12410
12598
12705
12697
12751
12806
12774
12654
12439
12127
12088
12088
12053
11987
11905
11572
11380
11152
11024
10993
11354
11576
11844
12067
12190
12232
12216
12203
12169
12165
12105
12166
12245
12316
12393
12496
12592
12684
12750
12753
12713
12677
12522
12406
12338
12265
12199
12156
12123
12095
12124
12223
12293
12379
12330
12236
12208
12228
12158
12096
12116
12117
12104
11933
11836
11800
11808
11819
11862
11977
11957
11957
11925
11903
11928
11937
11920
11894
11863
11851
11981
12109
12200
12227
12269
12374
12476
12578
12622
12621
12632
12583
12610
12598
12561
12488
12294
12123
11971
11858
11695
11463
11488
11568
11662
11756
11873
12198
12338
12480
12543
12583
12833
13078
13246
13316
13262
13155
12776
12541
12255
11906
11569
11197
11077
10990
11040
11146
11335
11464
11624
11787
11900
11980
12015
12041
12061
12080
12087
12180
12209
12259
12305
12297
12298
12361
12426
12463
12466
12502
12787
12926
12892
12841
12743
12519
12407
12304
12160
12004
11828
11543
11490
11457
11418
11412
11592
11683
11868
12098
12373
12599
12753
12612
12469
12418
12389
12299
12256
12145
12051
12079
12190
12390
12337
12273
12259
12271
12294
12406
12440
12421
12418
12552
12572
12528
12401
12265
12106
11787
11700
11609
11558
11531
11582
11630
11662
11654
11723
11821
12068
12278
12480
12677
12758
12691
12540
12370
12179
11986
11701
11603
11581
11639
11762
11896
12431
12640
12716
12655
12478
12193
12142
12121
12063
12026
12052
12072
12073
12083
12090
12130
12298
12385
12435
12473
12487
12434
12376
12290
12219
12159
12125
11953
11873
11827
11817
11822
11904
12021
12181
12382
12522
12628
12603
12470
12313
12179
12083
11857
11779
11806
11927
12071
12188
12263
12192
12111
12125
12208
12140
12119
12175
12155
12072
12021
12102
12175
12225
12233
12259
12463
12668
12740
12720
12648
12469
12369
12265
12124
11910
11687
11522
11603
11656
11690
11789
11888
11899
11978
12045
12103
12207
12299
12382
12477
12571
12572
12618
12539
12377
12243
12102
11821
11766
11688
11656
11686
11730
11784
11827
11869
11940
12048
12195
12201
12257
12351
12390
12422
12355
12344
12396
12439
12436
12489
12446
12401
12386
12431
12291
12141
12022
11926
11914
11992
12071
12023
11975
11968
12083
12483
12650
12745
12781
12737
12618
12252
12085
11957
11843
11750
11649
11680
11777
11816
11882
12014
12029
12136
12302
12482
12620
12814
12851
12941
12941
12845
12432
12147
11824
11575
11395
11283
11164
11155
11243
11358
11436
11570
11772
11956
12147
12275
12389
12497
12458
12364
12251
12194
12362
12537
12619
12622
12551
12276
12165
12089
12118
12178
12209
12167
12190
12276
12406
12573
12382
12201
12173
12351
12564
12750
12652
12476
12260
12053
11943
11795
11781
11752
11740
11685
11760
11796
11859
11916
12031
12252
12666
12769
12800
12739
12667
12328
12134
11990
11841
11753
11690
11700
11658
11649
11643
11691
11863
11966
12152
12454
12643
12664
12532
12438
12349
12325
12290
12081
11930
11830
11819
11930
12212
12190
12188
12215
12246
12217
12136
12088
12037
11947
11856
11884
11916
11920
11932
12014
12071
12157
12153
12150
12208
12341
12569
12637
12735
12761
12725
12449
12232
12161
12181
12202
12232
12180
12073
11985
11977
12023
12193
12227
12217
12254
12379
12446
12357
12252
12133
12006
11948
12017
12017
12035
12065
12138
12326
12266
12122
12030
11933
11894
11846
11823
11847
11856
11803
11748
11752
11847
12019
12255
12444
12536
12512
12496
12435
12392
12439
12452
12517
12612
12661
12678
12537
12315
12163
12015
11836
11556
11523
11520
11552
11687
12128
12233
12285
12260
12148
12078
11943
11930
11979
11969
11928
11958
12008
12008
11963
11913
11944
12164
12181
12187
12233
12300
12557
12646
12656
12643
12608
12503
12493
12486
12461
12424
12370
12140
12110
12185
12290
12318
12356
12361
12402
12400
12301
12128
11811
11702
11572
11587
11666
11837
11885
11976
12007
11992
12046
12132
12192
12271
12337
12367
12337
12320
12195
12097
12058
12228
12307
12352
12437
12556
12659
12674
12610
12517
12493
12454
12184
12013
11861
11660
11505
11412
11350
11441
11616
11803
11902
11939
11986
12069
12168
12243
12311
12372
12346
12294
12277
12305
12400
12407
12362
12311
12330
12284
12215
12153
12098
12066
12076
12168
12139
12075
12044
12033
12042
12031
12027
12075
12134
12210
12251
12283
12296
12309
12258
12085
12056
12068
12084
12146
12232
12262
12327
12417
12506
12582
12529
12482
12436
12321
12183
11909
11851
11778
11766
11757
11795
11949
12024
12084
12125
12221
12355
12390
12432
12399
12301
12313
12416
12468
12504
12494
12476
12516
12485
12382
12183
11925
11332
11195
11255
11503
11801
12048
12378
12537
12597
12573
12495
12187
12044
11931
11821
11690
11721
11781
11832
11859
11875
11920
12146
12169
12150
12166
12156
12152
12218
12263
12295
12382
12462
12523
12539
12534
12491
12432
12312
12273
12271
12299
12272
12200
12068
12031
12002
12036
12042
12010
12048
12088
12090
12076
12072
12046
12048
12022
12041
12069
12074
12079
12117
12218
12360
12525
12563
12601
12522
12383
12242
12152
12179
12239
12260
12279
12304
12336
12377
12389
12362
12047
11771
11590
11476
11484
11567
11743
11802
11870
11936
11916
11963
12006
12053
12140
12207
12200
12192
12234
12379
12527
12687
12887
12910
12927
12842
12750
12457
12293
12150
12039
11960
11938
11843
11720
11657
11679
11737
11858
11925
11960
11972
11964
11996
12112
12226
12291
12241
12170
12076
12000
11925
11898
11901
11942
12236
12359
12512
12604
12663
12577
12436
12308
12169
12038
11990
12030
12050
12138
12233
12312
12305
12315
12329
12343
12309
12172
12033
11903
11866
11917
12054
12169
12090
11978
11947
11947
11943
11931
11947
11958
11972
11982
11956
11924
11922
11933
11938
11919
11945
11982
12007
11991
12165
12343
12618
12965
13227
13458
13671
13667
13598
13500
13297
12920
12674
12393
12135
11849
11613
11374
11326
11287
11209
11111
11086
11193
11334
11451
11518
11654
11654
11649
11697
11786
11905
12114
12269
12460
12631
12725
12738
12683
12646
12603
12524
12465
12321
12292
12278
12314
12325
12387
12324
12220
12100
11999
11664
11597
11570
11531
11521
11574
11844
11963
12089
12207
12329
12443
12489
12595
12681
12771
12808
12748
12796
12862
12881
12848
12745
12503
12277
12085
11874
11600
11586
11557
11478
11482
11521
11634
11632
11621
11645
11707
11717
11738
11779
11844
11929
12056
12215
12284
12379
12502
12602
12680
12696
12738
12795
12744
12676
12645
12696
12682
12614
12545
12302
12178
12015
11767
11480
11153
11125
11168
11259
11383
11493
11826
12046
12277
12467
12564
12586
12593
12517
12523
12646
12782
12866
12846
12799
12714
12636
12371
12176
11989
11846
11762
11828
11826
11799
11731
11668
11666
11782
11816
11827
11879
11961
12027
12026
12016
12009
12004
11946
11903
12025
12211
12418
12612
12746
12732
12758
12810
12828
12826
12883
12951
12971
12954
12816
12294
12126
12018
12012
12029
11793
11646
11530
11413
11401
11423
11362
11352
11339
11342
11303
11228
11229
11292
11420
11559
11703
12128
12320
12482
12592
12696
12913
13021
13141
13277
13359
13269
13143
13013
12855
12704
12639
12376
12239
12143
12069
12030
11904
11809
11732
11724
11689
11662
11819
11888
11956
11968
11890
11763
11804
11887
12016
12204
12240
12145
12047
11942
11800
11780
11862
11951
12098
12301
12533
12768
12726
12640
12637
12661
12663
12443
12233
12028
11887
11775
11709
11770
11924
12057
12175
12262
12240
12174
12141
12057
12000
12127
12194
12159
12089
12004
11965
12009
11991
11961
12000
12096
12432
12576
12606
12670
12745
12778
12715
12661
12537
12350
12113
11687
11526
11420
11300
11146
11100
11154
11244
11403
11586
11986
12192
12369
12527
12727
12934
13358
13521
13467
13298
13083
12468
12116
11683
11261
10880
10702
10881
11084
11290
11541
11737
12171
12438
12773
13120
13420
13676
13968
14004
13923
13699
13382
12851
12563
12228
11950
11744
11481
11344
11257
11231
11180
11080
10850
10718
10655
10680
10781
11049
11207
11338
11422
11425
11392
11567
11722
12002
12429
12999
14297
14852
15274
15401
15322
14806
14374
13914
13432
12961
12524
11714
11376
11128
10943
10755
10424
10362
10348
10359
10370
10465
10581
10637
10771
11020
11343
12072
12411
12792
13141
13355
13562
13591
13599
13595
13605
13538
13086
12750
12509
12314
12123
11686
11590
11537
11510
11480
11411
11333
11413
11448
11416
11322
11121
11053
11089
11224
11411
11640
12019
12188
12437
12736
13016
13452
13645
13822
13932
13979
13677
13445
13249
12976
12696
12469
11888
11610
11402
11229
11085
10928
10921
10936
10952
10882
10809
10864
11005
11218
11488
11862
12767
13245
13673
13967
14077
13680
13376
13194
12919
12477
11942
10998
10717
10657
10761
10934
11140
11308
11545
11861
12151
12335
12580
12789
13054
13290
13360
12977
12868
12856
12874
12882
12808
12447
12298
12259
12285
12336
12520
12460
12345
12232
12161
12009
11898
11716
11556
11525
11492
11533
11560
11571
11633
11757
11952
12051
12162
12307
12413
12542
12740
12754
12802
12836
12855
12686
12503
12348
12254
12148
11818
11694
11621
11576
11576
11599
11554
11548
11548
11464
11348
11163
11189
11230
11291
11371
11465
11624
11646
11783
12014
12263
13031
13448
13810
13982
14001
13740
13432
13107
12853
12655
12532
12223
12079
11956
11929
11953
11959
11895
11843
11842
11848
11804
11704
11616
11506
11370
11209
10942
10907
10878
10773
10654
10580
10653
10867
11158
11557
12074
13409
14222
14974
15372
15393
14957
14614
14345
14131
13757
13233
12453
12291
12103
11932
11789
11607
11626
11654
11679
11646
11545
11168
10991
10866
10739
10584
10576
10779
11027
11221
11419
11783
11892
11988
12049
12088
12198
12677
12930
13105
13259
13489
13657
13535
13328
13145
12962
12782
12303
12021
11802
11672
11583
11408
11281
11114
10935
10844
10860
10972
11029
11127
11271
11426
12136
12791
13357
13555
13521
13565
13753
14019
14097
14033
13839
13000
12455
12014
11626
11329
11029
10891
10856
10915
11031
11380
12216
12518
12618
12470
12217
11979
11994
12046
11894
11675
11185
11009
10940
10881
10876
10868
11175
11509
11958
12512
13084
14011
14310
14554
14811
15112
15471
15177
14514
13742
13043
12491
11536
11207
11064
11023
11002
10999
10925
10956
10981
10974
10975
10984
10987
10982
10828
10459
9960
10023
10232
10588
11027
11456
11748
12130
12427
12816
13239
13643
14344
14590
14734
14559
14148
13027
12539
12293
12274
12217
12024
11608
11549
11605
11727
11865
12238
12336
12402
12445
12368
12198
11795
11669
11614
11615
11525
11255
11359
11594
11648
11663
11909
12232
12201
12173
12114
12126
12546
12787
12915
12867
12652
11987
11815
11892
11930
11928
12121
12835
13273
13618
13766
13808
13529
13105
12684
12348
11979
11724
11684
11641
11620
11504
11343
11141
11060
11059
11086
10995
10981
10994
10830
10600
10443
10412
10768
11004
11333
11946
12636
13578
14010
14704
15313
15633
16086
17147
17028
16329
15315
14253
12719
12226
11751
11264
10795
10468
10262
10125
9835
9408
9102
8951
8952
9012
9178
9395
9646
9897
10168
10692
12060
12832
13418
13730
13802
13691
12612
11660
11101
11019
11137
11958
12591
13264
13892
14345
15366
15360
15100
14724
14175
13553
12280
11823
11615
11588
11740
12194
12298
12043
11697
11524
11462
11284
11220
11220
11303
11390
11695
11984
12167
12093
11832
11274
10959
10732
10664
10759
10980
11747
11944
11853
11548
11077
9982
9637
9421
9463
9759
10169
10657
11375
12438
13684
16913
18382
19298
19392
18837
18018
15843
14424
13086
12048
11411
10858
10762
10674
10399
9950
9645
9625
9745
9995
10298
10715
10865
10928
10812
10509
10499
10752
10956
11086
11142
11138
11074
11255
11590
12014
12702
15222
16084
16493
16587
16420
16061
15233
14606
13750
13002
12535
11993
11533
10962
10070
9048
7983
7246
6862
6858
6970
6999
7010
7114
7538
8464
9984
12127
16775
18833
20252
20398
19140
15303
13851
12676
11759
11151
10821
10915
11030
11087
11475
12091
13670
14213
14526
14776
14458
12350
11555
10859
10210
9708
9416
9498
9767
9973
10168
11425
12324
13288
13661
13540
13035
11381
10234
8950
7777
6974
6652
6917
7847
9290
11002
13022
16749
17775
18093
17859
17238
16626
16000
15422
14409
13111
11847
10361
10759
11628
12411
12875
13145
12430
11715
11252
11269
11492
11730
11875
11905
11812
11867
12823
13305
13413
13034
12276
11304
9387
8621
8192
7840
7267
6923
7190
7963
9160
10573
12032
13243
14402
15479
17072
17800
18606
19148
18994
16051
13541
11286
9648
8632
8036
7871
8001
8430
8883
9339
10258
11682
14597
15509
15963
15324
13960
10693
9675
9300
9484
9987
10337
10372
10219
10019
10570
11627
13308
15007
15755
15533
13364
12005
11524
11544
11584
12425
12465
12092
11694
11694
13552
14580
15613
16784
17480
17219
14215
11851
9873
8719
7887
7071
6367
5690
5438
5726
6473
7342
8397
9777
11294
12853
15155
16056
16806
17442
18160
19035
19301
18035
16713
15506
14536
12821
11898
11073
10741
10571
10443
10525
10703
10821
11071
10703
9073
8887
8943
8954
8928
8787
8408
8296
8461
8901
9713
10769
11708
12127
12242
13132
14208
15500
16598
17054
16848
15023
14097
13419
12807
12308
11224
10758
10802
11026
10787
9938
9446
9488
10052
10647
11446
12344
13276
14062
15354
15757
16319
16783
16373
13182
11689
10818
10479
10747
11407
12589
12523
11914
10875
9923
9330
9119
9199
9474
9828
10357
11672
12342
13001
13777
14611
14865
14309
13467
12599
11989
10837
10005
8914
7607
6301
5639
5854
6836
8284
10069
11924
13281
16063
17751
19237
20503
21626
22017
18947
16196
13623
11624
10241
8750
8417
8395
8671
9189
9663
10133
10713
11209
11684
12131
12135
12034
12044
11884
11353
11160
11652
12480
13232
13580
13335
12422
12675
13169
13707
14378
14081
13057
11977
11040
10400
10171
10452
10604
10614
10610
10698
11570
12023
12170
12113
11979
10900
9782
9017
8616
8696
9268
10091
10934
11702
12804
15763
17243
18254
18632
18441
18024
15830
14376
13310
12748
12280
11079
10746
10565
10457
10366
10298
10270
10041
9810
9689
9486
9388
9434
9517
9301
8913
8743
8662
8814
9101
9563
10510
11666
13541
14236
14867
15324
15898
17726
18117
18382
18607
18454
17644
14867
13711
12914
12159
11470
10501
10342
9959
9228
8584
8096
7834
7850
8113
8475
8822
9085
9443
10136
11116
12481
14767
15395
15724
15647
15114
13509
12989
12705
12633
12641
12666
12542
12431
12186
11865
11578
11099
10827
10741
10843
11065
11404
11460
11561
11687
11734
11430
10826
10642
10427
10240
10210
10690
11119
11616
12207
13077
14134
14993
14910
14942
14942
14635
13630
13409
13495
13412
13063
12493
12047
11476
11026
10825
10817
10569
10449
10456
10414
10349
11229
12162
13171
13924
14250
14251
13704
13321
12698
12069
11658
11460
11540
11779
11918
11887
11906
12093
11993
11853
11817
11810
10874
10643
10704
10899
11137
11624
11806
12024
12287
12598
12852
13125
13180
13172
12889
12496
12362
12455
12451
12401
12415
12493
12873
13236
13525
13614
13504
12848
12560
12196
11795
11458
11055
10963
10950
10966
10996
11082
11267
11420
11703
11949
12156
12197
12153
12141
12126
12125
12036
11794
11796
11946
12271
12681
13507
13787
13907
13829
13608
13306
12554
12224
11968
11732
11557
11323
11139
10877
10665
10505
10354
10372
10381
10401
10444
10577
11493
12138
12853
13637
14279
14993
15003
14947
14975
14901
14552
13327
12804
12466
12233
12070
11822
11696
11460
11283
11145
11141
11171
11202
11206
11264
11318
11455
11540
11627
11694
11762
12013
12105
12155
12136
12113
12154
12263
12295
12322
12336
12280
12020
11866
11679
11474
11339
11266
11149
11090
11043
11121
11369
11963
12337
12759
13113
13279
13376
13478
13659
13927
14051
13935
13591
13337
12976
12562
12213
11940
11898
11879
11761
11690
11594
11420
11346
11304
11287
11340
11409
11448
11498
11555
11627
11920
12108
12361
12489
12394
12139
11869
11829
11755
11681
11709
12113
12380
12667
12839
12953
13153
13803
14104
14164
13980
13689
12832
12437
12113
11841
11654
11434
11350
11319
11283
11294
11332
11353
11403
11457
11565
11684
11837
11918
12040
12115
12066
12078
12097
12117
12111
12055
11990
11832
11715
11537
11352
11173
11080
11291
11551
11883
12265
12623
13305
13364
13243
13185
13253
13346
13324
13265
13166
12964
12702
12180
11991
11778
11522
11262
11071
11087
11133
11207
11305
11426
11833
12196
12588
13126
13718
14303
14013
13488
12974
12511
11987
11874
11828
11763
11634
11475
11404
11352
11317
11404
11475
11669
11800
11963
12136
12293
12453
12614
12766
12918
13000
13011
12749
12598
12422
12217
12025
11920
11897
11895
11861
11827
11767
11769
11779
11789
11831
11839
11787
11792
11777
11682
11570
11487
11452
11596
11766
11835
11931
12099
12221
12327
12437
12531
12696
13169
13212
13154
13090
12982
12647
12534
12442
12348
12281
11933
11736
11583
11409
11261
11209
11339
11548
11874
12144
12278
12402
12416
12383
12390
12419
12532
12621
12605
12494
12272
12086
11935
11918
11934
11964
11982
12141
12215
12282
12348
12542
12828
13184
13260
13286
13178
12857
12195
11966
11813
11736
11699
11674
11697
11687
11705
11763
11830
11899
11964
11931
11847
11758
11781
11940
12074
12157
12142
12071
11942
11980
12101
12308
12431
12410
12294
12161
12058
11992
11970
11913
11892
11854
11831
11827
11750
11717
11649
11590
11522
11527
11614
11650
11743
11983
12358
13196
13496
13667
13828
13815
13469
13232
13069
12954
12865
12734
12313
12165
12028
11870
11746
11651
11586
11573
11567
11581
11612
11853
11985
11978
11886
11761
11743
11838
11906
11964
12022
12045
12006
12017
12045
12075
12064
12199
12240
12270
12268
12249
12118
12010
12007
12057
12161
12249
12489
12605
12624
12547
12508
12357
12229
12024
11841
11794
11697
11508
11484
11499
11535
11652
11950
12096
12259
12454
12616
13016
13235
13320
13229
13042
12857
12698
12628
12485
12281
12073
11509
11313
11215
11171
11186
11297
11491
11588
11710
11833
11992
12569
12931
13214
13426
13518
13498
13385
13150
13109
12832
12400
11957
11787
11660
11568
11597
11758
11829
11856
11828
11746
11732
11658
11665
12107
16610
17727
23942
24780
21921
14380
17715
13777
20712
21771
21374
20966
20469
19571
10014
2
2
31
31
1522
3511
5187
6579
7732
8819
9799
10714
11542
12839
13361
13759
14003
14135
14385
14500
14635
14731
14796
14818
14759
14794
14752
14684
14610
14448
14357
14292
14279
14349
14351
14381
14375
14288
14189
14183
14257
14221
14103
13943
13772
13595
13194
13055
14813
13886
12967
12732
11303
11169
11432
11565
11902
11631
11735
11999
12228
12493
12401
12427
12368
12274
12155
11944
11799
11697
11638
11624
11633
11683
11766
11935
12117
12275
12666
12844
13012
13116
13128
12807
12629
12529
12501
12492
12481
12233
12209
12213
12158
11985
11755
11745
11757
11709
11642
11592
11532
11435
11422
11485
11568
11954
12176
12340
12474
12632
12806
13003
13030
13107
13154
13167
12815
12569
12347
12113
11943
11702
11607
11493
11520
11589
11623
11669
11702
11802
11902
11929
11996
12095
12166
12233
12263
12290
12257
12163
12058
11969
11927
11927
11967
12011
12030
12001
11907
11880
11893
11899
11931
11983
12089
12149
12114
12071
12012
11895
11898
11945
12031
12072
12138
12163
12128
12116
12135
12193
12402
12453
12485
12457
12397
12337
12338
12308
12325
12320
12301
12223
12136
12021
11884
11755
11486
11372
11390
11475
11561
11630
11616
11634
11709
11870
12083
12506
12693
12858
12868
12790
12698
12613
12641
12683
12655
12657
12751
12729
12637
12443
12317
12139
12106
12120
12104
12063
11976
11800
11690
11624
11635
11701
11974
12022
11975
11902
11903
11953
12255
12455
12495
12346
12106
11810
11797
11845
11831
11834
11864
11915
11971
12026
12055
12108
12196
12240
12303
12393
12445
12448
12407
12322
12277
12217
12196
12024
11971
11908
11877
11830
11802
11827
11877
11914
11892
11919
11961
11968
12049
12111
12142
12241
12221
12195
12158
12129
12142
12256
12319
12369
12393
12334
12190
12110
11999
11993
12096
12244
12258
12299
12318
12235
12188
12102
12043
11994
11971
11977
11941
11929
11916
11923
11948
12207
12287
12392
12522
12722
12951
13337
13341
13149
12863
12633
12343
12214
12046
11860
11666
11440
11278
11304
11310
11411
11561
11878
12037
12153
12273
12363
12406
12373
12415
12427
12430
12419
12289
12201
12061
11950
11906
11812
11761
11703
11638
11598
11495
11480
11492
11542
11642
11840
12413
12617
12740
12774
12708
12593
12319
12287
12259
12200
12196
12311
12368
12440
12533
12613
12598
12482
12404
12382
12342
12220
11954
11911
11814
11744
11756
11844
11931
12054
12190
12285
12361
12441
12467
12486
12437
12311
12037
11894
11791
11672
11589
11593
11682
11787
11934
12152
12387
12457
12495
12491
12479
12463
12401
12327
12236
12156
12116
12078
11916
11874
11956
12039
12069
12086
12053
12038
12057
12045
12040
12015
12022
12021
12027
12134
12389
12445
12459
12417
12336
12262
12269
12318
12429
12525
12502
12273
12178
12173
12206
12222
12289
12389
12448
12536
12639
12697
12561
12367
12119
11869
11674
11317
11115
11002
10939
10848
10926
11082
11305
11574
11847
12119
12500
12637
12734
12828
12847
12779
12646
12473
12305
12254
12397
12698
12773
12790
12776
12708
12467
12369
12328
12307
12271
12068
11948
11841
11764
11668
11574
11498
11543
11602
11723
11867
11953
12040
12146
12224
12254
12344
12352
12336
12339
12321
12302
12243
12158
12126
12086
12045
12062
12179
12206
12261
12347
12436
12583
12575
12470
12321
12251
12109
12061
12041
11984
11938
11923
11877
11852
11836
11861
11934
12154
12169
12196
12234
12293
12364
12355
12279
12210
12159
12073
11991
12051
12148
12250
12346
12380
12289
12235
12229
12196
12182
12236
12240
12278
12378
12507
12619
12607
12546
12470
12355
12241
12169
12155
12122
12027
11880
11564
11429
11291
11202
11202
11333
11558
11657
11767
11859
11999
12304
12400
12463
12507
12542
12485
12390
12257
12211
12241
12240
12331
12461
12549
12503
12439
12373
12351
12297
12234
12184
12188
12184
12168
12185
12147
12132
12158
12254
12395
12454
12414
12129
12005
11875
11794
11774
11833
12107
12197
12232
12213
12184
12231
12271
12305
12306
12261
12224
12249
12197
12051
11850
11619
11498
11521
11616
11752
11879
12030
12341
12418
12392
12426
12437
12398
12420
12463
12469
12484
12483
12484
12441
12400
12358
12308
12273
12132
11985
11894
11845
11921
12001
12104
12224
12231
12177
11961
11889
11874
11902
12004
12326
12406
12496
12599
12666
12564
12465
12373
12298
12185
12021
11786
11686
11652
11581
11548
11530
11558
11609
11653
11667
11623
11812
12017
12218
12317
12414
12525
12512
12523
12568
12646
12706
12673
12663
12608
12493
12316
12066
12016
12005
12010
12013
11976
11941
11934
11909
11962
12064
12276
12389
12470
12528
12531
12359
12285
12280
12254
12210
12184
12079
12051
12046
12054
12105
12105
12122
12192
12276
12360
12413
12376
12304
12253
12210
12168
12025
11954
11883
11796
11719
11859
11963
12084
12245
12331
12371
12376
12318
12254
12178
12097
11949
11968
11961
11893
11892
11926
11928
11961
12076
12297
12528
12894
12975
13002
12990
12916
12714
12543
12272
11938
11660
11421
10909
10781
10824
10911
10962
11236
11529
11916
12266
12576
12786
12869
12859
12853
12824
12810
12738
12742
12746
12693
12603
12434
12335
12216
12168
12269
12389
12394
12304
12268
12227
12123
11879
11759
11738
11712
11715
11688
11657
11719
11791
11844
11834
11742
11807
11996
12232
12387
12306
12147
12063
12016
11931
11905
12084
12272
12391
12467
12460
12448
12551
12630
12633
12517
12401
12222
12081
11911
11778
11712
11672
11644
11652
11662
11651
11605
11735
11863
11983
12115
12232
12359
12384
12379
12343
12355
12451
12453
12452
12473
12480
12480
12487
12520
12535
12526
12501
12561
12540
12465
12349
12239
12167
11916
11862
11862
11892
11918
12049
12146
12259
12235
12206
12280
12346
12352
12350
12332
12332
12297
12286
12236
12181
12156
12094
12060
12044
12028
12017
12030
12027
12043
12056
12067
12019
12165
12307
12435
12526
12541
12451
12354
12238
12109
12021
11908
11827
11830
11798
11761
11726
11697
11709
11682
11627
11596
11637
11745
11801
11889
12022
12253
12738
12843
12882
12880
12827
12753
12504
12375
12258
12186
12102
12006
11983
11968
11919
11924
11998
12075
12222
12373
12500
12550
12423
12283
12161
12052
12017
12044
12113
12183
12232
12214
12126
11963
11992
11997
12005
12044
12021
12053
12126
12220
12328
12520
12575
12558
12423
12276
12214
12107
11938
11834
11783
11791
11834
11828
11839
11827
11881
11906
12045
12146
12251
12330
12454
12506
12515
12501
12463
12414
12309
12222
12180
12141
12109
12096
12124
12106
12109
12119
12185
12300
12417
12492
12466
12367
12314
12310
12388
12439
12408
12363
12208
12081
11999
12002
12036
12019
11855
11799
11767
11668
11585
11517
11517
11496
11594
11762
12082
12141
12207
12283
12330
12370
12465
12466
12462
12537
12673
12950
12945
12842
12633
12417
12210
11807
11687
11588
11530
11527
11694
11913
12091
12219
12261
12226
12225
12268
12266
12199
12113
11945
11885
11898
11958
12019
12315
12466
12566
12488
12368
12298
12401
12423
12359
12299
12216
12063
11982
11916
11849
11848
11911
12174
12247
12264
12236
12252
12314
12340
12376
12407
12400
12321
12215
12131
12093
12029
11940
12042
12148
12231
12294
12328
12322
12262
12188
12061
12019
12012
12217
12434
12576
12577
12518
12264
12124
12087
12107
12138
12265
12345
12349
12298
12162
11975
11442
11259
11169
11171
11224
11494
11697
11886
12075
12236
12419
12766
12820
12897
12942
12963
12749
12576
12447
12294
12165
12077
11959
11809
11690
11670
11761
11976
12120
12229
12285
12353
12342
12275
12295
12424
12518
12644
12559
12382
12163
11978
11780
11457
11363
11294
11230
11218
11286
11538
11706
11875
12062
12224
12437
12471
12502
12518
12516
12564
12593
12571
12517
12438
12399
12448
12478
12515
12587
12594
12577
12631
12645
12614
12517
12389
12166
12076
11981
11935
11903
11844
11747
11609
11541
11481
11447
11433
11456
11576
11758
11850
12181
12390
12595
12759
12877
13007
12926
12827
12770
12734
12687
12608
12587
12549
12454
12266
11761
11516
11293
11169
11126
11111
11190
11391
11724
12149
12426
12601
12593
12602
12516
12458
12538
12601
12682
12644
12536
12449
12320
12245
12150
12046
11986
11821
11720
11642
11580
11537
11526
11579
11666
11765
11826
11897
12072
12159
12216
12258
12287
12371
12457
12487
12481
12469
12471
12400
12324
12282
12225
12226
12285
12322
12341
12356
12318
12274
12202
12216
12263
12352
12447
12483
12531
12477
12412
12353
12394
12388
12334
12242
12131
12018
11732
11528
11413
11374
11345
11451
11632
11824
11989
12148
12298
12530
12610
12692
12782
12843
12777
12731
12589
12439
12276
12221
11926
11720
11567
11489
11455
11527
11593
11585
11634
11712
12123
12563
12985
13189
13245
13232
13063
12971
12830
12627
12404
12075
11977
11844
11619
11391
11193
10872
10757
10734
10767
10894
11458
11821
12149
12507
12738
12767
12763
12787
12853
12933
13059
13091
13031
12951
12822
12617
12157
11906
11728
11632
11604
11629
11617
11617
11666
11820
11987
12241
12315
12394
12484
12652
12746
12741
12696
12596
12471
12282
12054
11928
11796
11690
11638
11626
11581
11652
11762
11911
12041
12250
12308
12352
12364
12378
12402
12371
12303
12238
12287
12338
12234
12192
12189
12152
12131
12369
12470
12508
12527
12514
12294
12072
11840
11710
11651
11664
11821
11867
11899
11938
12015
11961
11919
12020
12145
12235
12242
12128
12120
12129
12218
12368
12674
12727
12742
12715
12756
12843
12795
12496
12195
11984
11911
11846
11835
11791
11741
11707
11667
11694
11725
11753
11758
11850
12024
12098
12104
12082
12056
12133
12144
12187
12251
12340
12434
12544
12530
12498
12457
12392
12256
12242
12222
12157
12084
11964
11975
11991
12094
12232
12361
12454
12397
12281
12179
12056
11927
11872
11811
11718
11693
11776
12068
12101
12043
12045
12104
12201
12233
12277
12249
12232
12213
12246
12249
12222
12217
12304
12686
12830
13012
13146
13131
12668
12313
11953
11673
11465
11380
11418
11468
11471
11484
11592
11939
12117
12324
12526
12622
12663
12733
12788
12836
12857
12826
12624
12453
12274
12164
12072
11881
11826
11732
11642
11586
11628
11696
11733
11719
11635
11623
11772
11889
12000
12114
12137
12151
12205
12220
12185
12157
12183
12268
12278
12304
12336
12314
12253
12266
12268
12264
12252
12243
12176
12135
12135
12111
12113
12153
12237
12352
12496
12537
12526
12516
12497
12455
12402
12322
12102
12047
11954
11938
11926
11939
11884
11889
11929
11932
11867
11861
11900
11915
11931
11914
12044
12101
12148
12202
12277
12337
12429
12440
12464
12540
12646
12742
12787
12747
12652
12547
12463
12120
11874
11682
11607
11650
11808
11862
11872
11849
11783
11763
11834
11950
12088
12227
12367
12606
12583
12505
12411
12301
12141
12100
12057
12009
11917
11873
11896
12028
12185
12335
12403
12491
12453
12367
12253
12164
12128
12088
11988
11936
11967
11989
12078
12184
12272
12293
12314
12359
12370
12349
12206
11965
11736
11592
11640
11694
11792
11927
12237
12359
12485
12531
12509
12376
12200
12098
12095
12147
12118
12127
12234
12310
12337
12482
12528
12470
12486
12476
12470
12340
12000
11877
11799
11689
11624
11705
11845
11929
12101
12204
12282
12385
12453
12536
12519
12453
12185
12089
12021
11994
11947
11941
11984
12063
12152
12192
12167
12034
11946
11937
12024
12091
12156
12142
12108
12088
12095
12141
12106
12121
12137
12160
12180
12201
12197
12238
12255
12277
12327
12507
12509
12478
12414
12372
12402
12420
12324
12203
12103
12080
12080
12069
12032
12009
12015
11997
12024
12082
12130
12107
12101
12014
11937
11874
11868
11912
12083
12143
12231
12352
12467
12656
12689
12665
12601
12548
12382
12220
12066
11956
11870
11824
11746
11808
11882
11941
12009
12212
12234
12248
12251
12231
12202
12058
11950
11881
11939
11982
11950
11979
12068
12226
12398
12528
12444
12425
12405
12403
12445
12450
12416
12367
12303
12242
12016
11797
11539
11309
11161
11122
11344
11492
11737
12088
12474
13061
13166
13100
12943
12764
12661
12310
12156
12034
11990
11968
11926
11883
11919
11983
12039
12044
12006
11982
11960
11960
11969
12040
12081
12210
12361
12501
12494
12438
12407
12425
12497
12566
12571
12468
12360
12217
12077
11866
11705
11608
11580
11625
11755
11844
11916
12020
12049
12006
12018
12101
12183
12237
12300
12346
12390
12481
12598
12706
12750
12593
12464
12359
12222
12094
11930
11925
11892
11845
11868
12010
12301
12356
12341
12302
12196
11970
11880
11819
11820
11898
12140
12202
12235
12279
12238
12263
12360
12350
12306
12299
12292
12294
12309
12256
12270
12239
12158
12010
12049
12095
12087
12053
11823
11695
11623
11573
11555
11732
11848
11946
12067
12192
12357
12595
12635
12636
12611
12520
12449
12466
12410
12318
12284
12287
12271
12248
12211
12160
12101
11915
11773
11637
11508
11401
11403
11640
11717
11731
11775
11825
11996
12096
12185
12266
12394
12755
12878
12989
13066
13123
13088
13065
13118
13112
12921
12622
12243
12184
12080
11868
11519
11205
11192
11296
11382
11537
11666
11809
11894
11966
12124
12335
12761
12913
12945
12893
12758
12584
12366
12336
12308
12215
12126
11845
11639
11477
11398
11391
11471
11897
12079
12240
12330
12391
12329
12300
12323
12348
12304
12290
12350
12441
12535
12543
12522
12345
12253
12186
12127
12057
11920
11848
11859
11897
11943
11980
12172
12224
12235
12205
12136
12021
11929
11847
11740
11709
11736
11911
11997
12063
12074
12057
12071
12104
12126
12166
12128
12055
12126
12228
12271
12285
12271
12211
12255
12338
12442
12523
12526
12581
12569
12443
12507
12682
12356
12263
12107
11968
11932
11953
11731
11659
11465
11382
11457
11497
11555
11673
11763
11886
12120
12314
12385
12282
12098
12072
12164
12202
12251
12187
12119
12000
12040
12119
12232
12336
12457
12444
12480
12500
12532
12548
12457
12313
12164
12027
11998
12239
12351
12429
12482
12509
12455
12400
12324
12268
12201
12173
12112
12084
12088
12106
12093
12057
12086
12111
12113
12144
12162
12214
12287
12370
12432
12414
12264
12209
12231
12208
12177
12139
12128
12127
12133
12162
12139
12156
12179
12198
12172
12129
11994
11957
11897
11864
11817
11820
11871
11952
12069
12217
12332
12400
12363
12365
12274
12175
12313
12503
12496
12379
12266
12210
12247
12236
12214
12161
12099
11931
11898
11910
11957
12076
12217
12309
12256
12208
12146
12138
12148
12156
12171
12234
12260
12296
12275
12193
12088
12005
11983
11919
11926
11949
11998
12035
12039
12068
12092
12115
12117
12166
12287
12324
12393
12406
12388
12319
12267
12236
12282
12290
12296
12214
12193
12133
12119
12116
12147
12165
12174
12201
12215
12147
12058
12052
12048
12016
11914
11779
11757
11748
11756
11788
11946
12042
12209
12475
12767
12936
12849
12725
12610
12497
12376
12261
12286
12283
12203
12055
11889
11673
11718
11849
12057
12262
12415
12295
12078
11854
11680
11566
11593
11660
11769
11960
12063
12107
12076
12116
12223
12400
12720
12894
13029
13114
13168
13180
12920
12696
12484
12281
12136
11925
11817
11732
11672
11651
11638
11614
11615
11639
11724
11843
11999
12028
12087
12113
12111
12089
12043
12034
12036
12043
12122
12383
12407
12448
12456
12432
12390
12329
12278
12227
12179
12057
12018
12011
12009
12024
12108
12018
11926
11787
11734
11713
11747
11734
11718
11740
11818
11943
12188
12283
12434
12552
12604
12773
12830
12871
12895
12801
12682
12419
12373
12339
12259
12207
12076
12053
12025
12020
12017
12061
12061
12041
12044
12039
12018
11943
11821
11646
11520
11412
11416
11494
11531
11576
11633
11712
11856
11950
12156
12464
12803
13392
13622
13844
13957
13922
13318
12942
12630
12480
12406
12276
11908
11774
11642
11568
11535
11457
11434
11417
11410
11394
11361
11408
11562
11762
11969
12142
12299
12330
12379
12374
12385
12360
12338
12316
12298
12302
12319
12314
12279
12192
12052
11914
11659
11626
11710
11856
12086
12346
12800
12928
12907
12788
12640
12345
12141
11878
11671
11510
11352
11253
11292
11396
11495
11631
12075
12374
12638
12788
12953
13326
13432
13464
13327
13113
12865
12390
12199
12036
11891
11790
11823
11852
11831
11829
11762
11658
11273
10998
10686
10378
10066
9736
9814
10034
10349
10789
11457
12264
13822
14400
14888
15289
15621
15830
15767
15460
15006
14470
13820
12469
12084
11816
11585
11329
11130
11018
10936
10856
10809
10848
11146
11381
11538
11681
11776
11885
11895
11922
11870
11745
11564
11106
10961
10939
10971
11004
11198
11359
11610
11902
12211
12439
12812
13018
13179
13306
13451
13359
13149
13022
12977
12958
12921
12920
13016
13050
12868
12424
11501
11235
11086
10983
10904
10825
10776
10800
10856
11005
11230
11747
12076
12411
12647
12865
13329
13371
13295
13139
12967
12824
12857
12886
12859
12769
12541
11765
11334
11054
10934
11063
11658
11898
12113
12226
12172
12150
12425
12654
12870
12964
12974
12859
12770
12596
12376
12161
11988
11663
11580
11550
11461
11296
11447
11664
12065
12600
13049
13317
13279
13123
12867
12549
12222
12178
12350
12452
12445
12348
11979
11891
11907
12010
12206
12362
12670
12790
12713
12456
12196
11600
11369
11255
11287
11417
11533
11644
11358
10675
9974
9337
8864
8668
8733
9108
9702
10478
12077
12750
13507
14405
15285
16173
16982
16721
16148
15050
13685
11355
10509
9899
9548
9467
9581
9857
10314
11092
12085
13914
14598
15033
15153
14887
14290
12549
11524
10677
10039
9510
9350
9628
9999
10343
11053
11146
11390
11809
12415
14122
14960
15678
15926
15425
14526
13043
12323
11612
11161
10934
10157
9985
10099
10318
10674
11148
11450
11142
10475
9642
9338
10024
11625
15462
16822
17629
17550
16589
15180
12934
12360
12247
12333
12120
10957
10612
10405
10333
10415
10618
10567
9887
9254
8782
8594
8963
9617
10392
11246
12064
12558
13260
13926
14822
15802
16547
17081
16669
15401
13306
11061
8302
8076
8453
9108
9748
10445
11224
11822
12245
12539
13911
14801
15424
15709
15447
14976
12832
11531
10803
10570
10637
11266
11508
11665
11666
11823
12243
12735
12872
13207
13463
13237
11528
10768
10185
9566
9291
9580
10221
10982
11956
11335
10369
9699
9714
10481
11523
12500
14405
15159
15315
15140
15021
15332
15458
15624
15724
15172
12796
12206
11773
11505
11212
10891
10304
9984
9799
9906
10220
10493
10417
10324
10126
10096
10161
10133
10029
10558
11427
12686
14134
15602
16789
17432
16965
15958
14639
13320
11176
10439
10056
9878
9910
9921
9873
9989
10318
10757
11790
12310
12727
13196
13614
13667
12991
12818
12675
12324
11734
9860
8923
8461
8225
8178
8506
9007
9716
10563
11350
12266
13685
15287
17697
18451
18971
18822
17767
14739
13506
12493
11794
11299
10941
10748
10875
11085
11359
11543
11431
11281
11222
11193
11242
11556
11671
11666
11731
11873
11919
11624
11434
11199
11108
11192
11326
11413
11412
11169
10768
10232
9941
10422
11064
11549
11859
12099
12448
13132
14309
15494
16315
16413
15795
14965
14159
13404
12726
11359
10782
10326
10093
10121
10522
10878
11246
11604
11915
12084
12218
12567
13188
13849
14228
14121
13673
12999
12216
11578
10984
10875
10817
10745
10727
10588
10388
10551
10998
11589
12076
12508
12511
12438
12435
12615
13078
14214
14560
14763
14701
14291
12639
11814
11281
10933
10725
10753
11272
11619
11919
12097
12295
12641
12755
12825
12960
13091
12362
11979
11717
11500
11396
11386
11405
11360
11282
11179
11061
11266
11469
11688
11985
12294
12471
12441
12302
12250
12271
12229
12156
12088
11965
11859
11804
11813
11857
12047
12321
12651
12971
13128
13065
13019
12889
12758
12699
12454
12154
11921
11740
11590
11278
11115
11023
11090
11305
12044
12465
12770
12899
12975
13127
13113
13156
13135
13046
12836
12344
12077
11955
11899
11874
11853
11843
11854
11885
11944
12023
12171
12156
12079
12027
11941
11689
11589
11540
11505
11527
11611
11713
11761
11882
12047
12118
12170
12209
12231
12206
12132
11759
11737
11901
12140
12460
12612
12360
12410
12611
12793
12948
13014
13075
13128
12884
12442
12049
11364
11156
11082
11111
11356
12168
12420
12445
12376
12120
11803
11833
11969
12132
12270
12458
12872
13123
13530
14051
14417
13886
13269
12715
12356
12102
11869
11553
11469
11522
11546
11582
11488
11440
11406
11383
11299
11233
11306
11450
11629
11820
12034
12146
12162
12141
12085
12047
11903
11736
11590
11507
11457
11504
11802
11841
11860
11948
12045
12439
12702
12991
13212
13358
13457
13321
13147
13037
12910
12746
12389
12292
12222
12124
11998
11874
11805
11780
11801
11849
11901
11773
11651
11516
11483
11495
11467
11563
11664
11775
11893
12029
12389
12530
12513
12401
12358
12315
12224
12176
12131
12124
12134
12337
12409
12393
12366
12306
12140
12029
11874
11759
11789
12081
12144
12184
12293
12312
12332
12514
12741
12889
12895
12736
12182
11985
11881
11909
11993
12086
12467
12765
12869
12690
12403
12017
11841
11642
11461
11391
11346
11327
11339
11376
11437
11489
11547
11553
11574
11628
11704
12183
12514
12787
13057
13430
13793
14174
14164
13902
13423
12861
11925
11737
11700
11638
11590
11563
11646
11722
11832
12008
12302
12937
12935
12694
12431
12299
12352
12313
12299
12247
12138
12067
11859
11818
11743
11680
11663
11690
11693
11680
11629
11567
11586
11786
11864
11976
12044
12093
12192
12237
12213
12200
12230
12214
12224
12172
12143
12136
12113
12069
12056
12050
12110
12136
12091
12015
11950
11934
11922
11976
11958
11949
11986
12078
12222
12498
12539
12544
12576
12620
12712
12746
12688
12509
12234
11958
11586
11490
11419
11298
11203
11176
11364
11583
11809
12031
12281
12839
13075
13308
13493
13566
13211
12940
12730
12564
12429
12274
12200
12199
12077
11928
11795
11737
11785
11871
12011
12098
12233
12259
12301
12422
12519
12514
12498
12339
12096
11875
11775
11612
11588
11653
11788
11906
11942
11998
12108
12139
12165
12259
12390
12454
12551
12620
12605
12458
12319
12134
11982
11883
11808
11713
11714
11740
11763
11795
11788
11761
11753
11781
11905
12061
12178
12151
12072
11969
11948
12110
12221
12377
12539
12568
12436
12458
12612
12758
12846
12886
12839
12725
12533
12317
12155
11912
11827
11752
11670
11612
11590
11685
11794
12009
12201
12343
12420
12387
12374
12332
12167
11903
11515
11379
11285
11251
11307
11314
11285
11311
11366
11525
12172
12545
12975
13456
13931
14388
14537
14254
13889
13452
12942
12141
11932
11800
11675
11539
11411
11313
11352
11455
11632
11898
12220
12353
12353
12313
12276
12256
12218
12188
12183
12173
12113
12030
11973
11771
11591
11369
11111
11096
11130
11367
12598
11465
11302
11373
11281
11569
12181
14596
14075
12915
12517
12394
12366
12425
12534
12625
12638
12674
12908
12974
12923
12855
12787
12622
12424
12233
11999
11788
11682
11583
11607
11616
11829
11913
22851
13866
8091
8360
7299
6941
7043
7781
8717
9449
10005
10435
10800
11433
11691
11927
12160
12324
12496
12602
12433
12503
12676
12756
12887
12959
13010
13027
12995
12671
12682
12723
12641
15159
17650
13605
11229
9445
9306
9770
10230
10587
10908
11597
11974
12312
12708
13164
13706
13712
13699
13690
13578
13353
12486
12233
12016
11844
11719
11696
11725
11708
11710
11646
11586
11637
11702
11770
11847
12024
12558
12882
13147
13304
13313
13165
13097
12988
12814
12638
12492
12101
12078
12142
12232
12284
12620
12730
12862
12943
12953
12938
12919
12882
12758
12465
12161
11717
11667
11497
11424
11422
11445
11429
11408
11412
11383
11356
11319
11348
11460
11581
11692
12081
12370
12638
12840
12975
13032
12797
12631
12454
12289
12127
11839
11779
11750
11729
11758
11745
11744
11795
11884
12005
12180
12402
12424
12459
12473
12482
12672
12762
12743
12659
12546
12437
12208
12139
12063
12029
12011
11960
11953
12020
12047
12064
12031
11950
11780
11622
11541
11499
11351
11274
11329
11466
11639
11842
11993
12135
12262
12356
12469
12776
12927
13065
13154
13263
13541
13586
13491
13245
12909
12363
12179
12051
11994
11988
11918
11680
11493
11238
11027
10919
10813
10789
10861
10986
11167
11494
12153
12429
12704
12970
13198
13388
13469
13579
13745
13749
13631
13022
12740
12514
12268
12043
11706
11571
11447
11359
11319
11385
11461
11564
11629
11590
11511
11496
11576
11665
11727
11785
11955
12089
12210
12325
12437
12496
12644
12693
12697
12657
12587
12297
12169
12097
12081
12100
12141
12135
12137
12169
12202
12184
12167
12160
12144
12132
12097
11993
11948
11893
11803
11719
11589
11546
11584
11630
11745
11925
12144
12137
12093
12049
11998
12003
12014
12068
12144
12287
12478
12775
12844
12945
13047
13057
12905
12769
12604
12433
12302
12211
12139
12212
12399
12584
12674
12475
12302
12169
12068
11999
11940
11903
11854
11838
11799
11761
11752
11812
11861
11924
11976
12022
11994
11971
11985
12019
12060
11975
11915
11888
11833
11796
11741
11776
11831
11900
11963
12118
12436
12475
12503
12482
12462
12275
12292
12365
12476
12585
12699
12656
12490
12394
12382
12494
12588
12607
12570
12479
12343
12060
11932
11854
11819
11784
11775
11789
11744
11707
11697
11691
11688
11702
11726
11753
11753
11819
11949
11964
11910
11904
11952
12157
12284
12396
12519
12539
12581
12615
12595
12548
12508
12479
12364
12289
12123
12005
11915
11856
11918
11986
12016
12018
12063
12131
12127
12105
12085
12091
12201
12225
12257
12288
12337
12617
12728
12803
12802
12772
12775
12732
12648
12521
12366
12247
11940
11792
11722
11715
11693
11712
11838
11974
12108
12143
12115
12139
12166
12216
12171
12091
12014
11888
11864
11889
11930
11914
11731
11714
11731
11745
11798
11861
11952
12053
12163
12250
12331
12524
12574
12635
12711
12778
12777
12595
12394
12276
12237
12218
12100
12067
12014
11954
11908
11850
11866
11956
12023
12077
12235
12296
12411
12490
12508
12474
12235
12085
11961
11878
11823
11777
11766
11718
11741
11787
11862
12117
12317
12534
12636
12637
12542
12423
12283
12155
12029
11867
11828
11860
11989
12038
11984
11878
11868
11979
12095
12202
12382
12445
12401
12325
12243
12163
12028
12047
12115
12196
12251
12312
12364
12444
12562
12626
12690
12655
12568
12490
12374
12187
11960
11979
12072
12218
12293
12037
11930
11930
11992
12126
12274
12386
12375
12400
12392
12293
12063
11894
11750
11640
11517
11404
11469
11624
11787
11983
12113
12228
12264
12299
12337
12373
12363
12315
12275
12222
12168
12167
12119
12129
12118
12099
12068
12064
12059
12069
12126
12214
12252
12364
12441
12471
12516
12543
12507
12412
12333
12254
12187
12129
11950
11870
11778
11643
11562
11533
11595
11748
11944
12160
12571
12666
12602
12375
12108
11945
12115
12311
12537
12646
12654
12437
12285
12126
11984
11915
11889
11820
11794
11825
11860
11935
12136
12357
12547
12675
12790
12708
12505
12286
12108
11991
11953
11884
11844
11849
11865
11982
12438
12616
12716
12743
12710
12668
12528
12331
12224
12144
12109
12002
11837
11657
11522
11472
11493
11677
11730
11764
11809
11856
11865
11953
12028
12096
12158
12324
12343
12332
12302
12255
12235
12063
12037
12067
12132
12175
12442
12649
12738
12673
12573
12498
12474
12492
12464
12383
12307
12136
12069
12040
12003
11936
11865
11853
11862
11906
11909
11936
12152
12291
12353
12419
12408
12291
12271
12278
12297
12270
12179
11909
11800
11708
11665
11745
12130
12349
12649
12890
13055
13236
13178
12969
12640
12309
12087
11803
11669
11571
11473
11347
11023
10969
11033
11105
11221
11425
11775
11981
12274
12511
12633
12655
12623
12611
12607
12557
12461
12303
12317
12334
12342
12297
12312
12350
12372
12325
12340
12344
12373
12367
12413
12518
12577
12559
12514
12483
12446
12353
12050
11811
11632
11453
11363
11332
11378
11417
11485
11586
11680
12023
12229
12366
12436
12484
12482
12421
12368
12316
12301
12343
12608
12745
12854
12839
12715
12450
12326
12156
12033
11885
11772
11674
11597
11573
11600
11678
11973
12093
12224
12381
12491
12581
12574
12541
12434
12284
12122
12065
11993
12037
12127
12205
12292
12307
12273
12232
12151
12003
11764
11717
11706
11760
11902
12074
12083
12118
12098
12068
12132
12195
12149
12082
12013
12060
12411
12418
12390
12490
12675
12821
12760
12622
12441
12279
12164
11944
11955
11991
11993
12052
11977
11922
11834
11742
11695
11686
11658
11679
11807
11902
11989
12129
12185
12265
12372
12439
12562
12656
12767
12770
12756
12666
12431
12292
12200
12091
11971
11786
11831
11897
11928
11934
11919
11878
11887
11966
12033
12080
12141
12266
12417
12545
12618
12595
12416
12342
12218
12051
11964
11971
12049
12212
12332
12498
12889
13078
13198
13160
13043
12915
12498
12118
11753
11389
11056
10652
10574
10625
10805
11051
11249
11683
11959
12183
12271
12355
12451
12464
12520
12569
12534
12362
12254
12161
12077
12042
12085
12247
12390
12518
12683
12796
12877
12871
12806
12694
12545
12384
11985
11811
11712
11638
11584
11578
11577
11620
11661
11692
11700
11813
11950
12074
12138
12217
12428
12500
12467
12431
12434
12471
12516
12584
12617
12609
12606
12641
12653
12596
12479
12315
12166
12134
12098
12099
12087
12075
12124
12108
12101
12106
12084
11954
11996
11956
11838
11699
11506
11515
11664
11870
12054
12272
12557
12625
12693
12785
12801
12650
12546
12421
12292
12163
12024
11715
11609
11591
11636
11698
11870
12103
12367
12488
12625
12838
12776
12632
12452
12340
12229
11819
11641
11506
11351
11218
11163
11253
11336
11469
11660
11836
12110
12242
12326
12409
12450
12502
12429
12384
12355
12407
12445
12626
12807
12945
12943
12836
12500
12355
12247
12178
12130
12004
12048
12035
11948
11793
11700
11670
11775
11928
12072
12182
12331
12337
12365
12420
12400
12355
12321
12388
12429
12379
12229
12072
12126
12143
12104
12061
11954
11973
11931
11885
11766
11721
11774
11961
12123
12247
12346
12536
12604
12662
12669
12615
12576
12499
12519
12538
12503
12442
12229
12087
12025
12058
12120
12249
12279
12173
12059
11963
11886
11735
11754
11779
11757
11725
11633
11532
11478
11556
11680
11787
12139
12279
12401
12419
12448
12573
12522
12382
12271
12192
12093
11829
11762
11735
11750
11777
11873
11899
11920
11935
11980
12226
12361
12500
12659
12787
12757
12604
12607
12651
12756
12879
13014
12981
12873
12712
12525
12364
12024
11870
11708
11552
11392
11240
11206
11187
11219
11294
11790
12075
12326
12541
12695
12699
12642
12631
12561
12493
12461
12473
12441
12454
12573
12715
12777
12615
12437
12299
12196
12075
11912
11751
11571
11407
11321
11304
11292
11350
11511
11769
12045
12489
12580
12610
12551
12462
12251
12121
12057
12104
12208
12316
12367
12194
12106
12057
12031
11998
11983
11955
12007
12153
12296
12538
12571
12551
12548
12620
12387
12167
11914
11658
11419
11368
11452
11556
11671
11826
12007
12308
12341
12419
12584
12649
12615
12549
12476
12398
12333
12262
12189
12141
12132
12153
12169
12056
12039
12049
12080
12041
12008
11948
11911
11926
12001
12076
12225
12282
12304
12343
12367
12241
12164
12099
12047
12070
12142
12225
12206
12140
12108
12149
12386
12421
12493
12567
12663
12813
13161
13228
13111
12936
12699
12077
11823
11630
11516
11396
11106
11005
10956
10957
10994
11077
11405
11595
11802
12047
12323
12894
13005
13088
13149
13142
13053
12760
12549
12343
12194
12092
11827
11663
11554
11451
11504
11885
12054
12229
12306
12348
12417
12499
12492
12545
12675
12732
12717
12695
12692
12621
12403
12131
11718
11619
11455
11300
11258
11288
11415
11565
11653
11736
11786
11944
12039
12125
12202
12168
12132
12180
12287
12382
12386
12341
12305
12245
12292
12361
12458
12464
12495
12513
12535
12580
12797
12881
12863
12754
12559
12296
11869
11773
11803
11831
11833
11764
11694
11640
11597
11589
11743
11892
12067
12197
12309
12402
12393
12422
12476
12534
12557
12651
12683
12653
12582
12508
12590
12559
12497
12393
12253
12116
11918
11846
11824
11813
11748
11685
11680
11699
11748
11811
11852
11886
11923
11982
12040
12112
12230
12213
12173
12102
11970
11922
12137
12208
12226
12293
12371
12574
12658
12718
12733
12699
12636
12593
12431
12139
11870
11586
11186
11174
11232
11378
11569
12192
12445
12657
12808
12879
12808
12579
12412
12355
12374
12315
12221
12159
12080
12020
11964
11921
11850
11891
11831
11648
11452
11429
11534
11677
11855
12040
12122
12241
12489
12857
13123
13219
13068
12944
12795
12604
12473
12211
12052
11913
11797
11726
11734
12033
12226
12263
12106
11993
12090
12159
12300
12428
12477
12483
12487
12443
12373
12317
12260
12096
12127
12109
12112
12181
12218
12098
11828
11607
11411
11234
10927
10849
10960
11096
11309
11845
12213
12458
12618
12772
12965
13012
12863
12705
12581
12496
12461
12512
12529
12538
12496
12302
12102
11921
11789
11709
11711
11937
12047
12200
12367
12474
12487
12435
12319
12208
12086
11977
11988
12002
12026
12064
12108
12162
12189
12227
12245
12220
12195
12234
12286
12329
12311
12292
12202
12192
12201
12285
12291
12190
12151
12105
12104
12095
12075
12163
12277
12386
12468
12543
12490
12462
12468
12458
12410
12316
11977
11671
11395
11152
10990
11077
11249
11479
11759
11990
12488
12717
12946
13030
13006
12915
12672
12479
12295
12184
12059
11852
11781
11688
11630
11602
11591
11811
12053
12304
12364
12295
12193
12188
12212
12229
12263
12198
12269
12312
12304
12272
12292
12497
12546
12593
12641
12666
12559
12412
12272
12165
12074
12016
11857
11723
11589
11484
11431
11365
11390
11435
11525
11768
12082
12741
13008
13136
13049
12855
12649
12699
12766
12744
12622
12262
12066
11889
11865
11868
11835
11664
11580
11572
11613
11687
11985
12094
12137
12139
12161
12224
12380
12456
12457
12325
12150
11737
11595
11568
11624
11745
12076
12201
12226
12289
12383
12518
12679
12732
12711
12645
12525
12432
12470
12518
12525
12438
12377
12072
11955
11889
11819
11779
11829
11814
11841
11936
12107
12263
12499
12578
12620
12569
12465
12217
12072
11952
11861
11762
11648
11596
11567
11577
11601
11696
12128
12367
12561
12710
12775
12824
12835
12789
12706
12591
12429
12081
11918
11754
11651
11528
11388
11384
11401
11401
11423
11801
12120
12441
12724
12871
12940
12978
12873
12758
12662
12568
12381
12259
12132
12030
11911
11793
11681
11659
11621
11637
11765
12072
12236
12389
12481
12474
12388
12163
12082
12021
12009
12060
12262
12327
12414
12507
12600
12511
12323
12122
11939
11863
11838
11950
12076
12213
12295
12458
12643
12487
12324
12174
12037
11920
11798
11726
11643
11588
11581
11747
11910
12042
12130
12150
12237
12288
12360
12421
12466
12515
12630
12588
12507
12349
12194
12022
12009
11982
12002
12045
12076
12154
12217
12279
12334
12326
12226
12157
12079
12039
12071
12157
12178
12160
12160
12154
12113
11974
11948
11981
12038
12053
12183
12253
12313
12327
12280
12277
12229
12172
12122
12048
11962
11982
12102
12226
12359
12453
12456
12327
12289
12248
12191
12110
11971
11927
11866
11791
11707
11814
11914
12038
12246
12484
12664
12754
12638
12491
12369
12303
12182
12203
12240
12273
12236
12158
12215
12126
12071
12035
11962
11856
11834
11842
11815
11718
11429
11383
11443
11565
11712
11839
12175
12488
12721
12858
12897
12807
12748
12755
12675
12661
12640
12439
12373
12360
12337
12261
12057
11989
11971
11998
12032
12004
12219
12256
12176
12071
12043
11978
11966
11948
11980
11986
11964
11976
12065
12172
12193
12155
12058
12000
11967
11950
11886
11807
11835
11876
11944
12012
12025
11945
12090
12293
12452
12632
12851
12917
12946
12912
12837
12504
12290
12105
12006
11871
11787
11728
11651
11653
11672
11735
11998
12010
11933
11849
11838
11933
12223
12349
12390
12381
12361
12344
12362
12396
12431
12508
12557
12501
12412
12365
12254
12108
11923
11796
11738
11762
11823
12158
12419
12699
12934
13112
13165
12715
12460
12258
12044
11852
11556
11481
11454
11454
11456
11524
11780
11929
12132
12320
12350
12326
12259
12141
12013
11912
11876
11896
11931
12014
12133
12288
12431
12460
12525
12552
12527
12310
12149
12031
11890
11799
11803
11963
11998
12008
12071
12138
12379
12427
12372
12294
12167
12064
12067
12096
12135
12189
12234
12263
12182
12095
12008
12005
12141
12247
12321
12426
12526
12521
12455
12414
12330
12350
12453
12306
12076
11837
11615
11645
11886
12311
12332
12271
12153
12043
11958
11918
12021
12129
12231
12359
12321
12285
12319
12382
12439
12396
12302
12259
12275
12346
12241
12185
12115
12053
11952
11884
11833
11808
11814
11825
11849
11829
11711
11662
11697
11795
11998
12113
12167
12152
12147
12147
12202
12215
12227
12234
12241
12190
12176
12179
12184
12216
12346
12795
12979
13093
13052
12948
12679
12501
12329
12193
12040
11977
12120
12199
12236
12259
12218
12040
11941
11865
11806
11765
11808
11781
11729
11734
11712
11700
11898
11980
12031
12011
11942
11901
11877
11809
11819
11906
12026
12301
12327
12266
12222
12130
12020
12050
12136
12267
12409
12948
13179
13344
13287
13012
12651
12136
12008
11940
11923
11930
11944
11891
11805
11735
11732
11706
11862
11931
11962
11995
12058
12247
12364
12469
12562
12605
12628
12596
12563
12497
12429
12336
12132
12018
11962
11923
11892
11851
11838
11850
11856
11920
11956
12089
12185
12349
12455
12485
12389
12261
12149
12022
11874
11749
11758
11806
11885
11961
12009
12123
12265
12347
12402
12430
12305
12180
12026
11911
11805
11740
11710
11790
11976
12201
12426
12733
12793
12857
12897
12912
12916
12904
12932
12996
12973
12840
12283
11997
11814
11695
11643
11541
11552
11547
11549
11494
11479
11590
11707
11898
12048
12164
12367
12451
12452
12370
12284
12251
12300
12356
12407
12385
12343
12258
12176
12070
11984
11900
11863
11924
11955
11949
11911
11937
12068
12064
12053
12091
12128
12075
12025
12013
12023
12056
12117
12203
12226
12152
12079
11926
11695
11602
11550
11525
11586
11736
12148
12321
12463
12575
12630
12787
12793
12772
12810
12835
12876
13027
13174
13292
13285
13112
12508
12308
12063
11863
11661
11460
11366
11276
11165
11133
11173
11402
11515
11630
11751
11864
12301
12443
12548
12676
12900
13204
13202
13068
12886
12687
12471
12159
12135
12137
12069
11991
11747
11692
11567
11469
11496
11623
11823
11912
12022
12092
12112
12221
12350
12465
12519
12510
12432
12268
12215
12136
12025
11921
11667
11617
11642
11639
11591
11560
11596
11708
11833
11933
12068
12264
12417
12703
12941
13074
13022
12926
12846
12816
12812
12808
12685
12634
12505
12394
12312
12194
12106
12022
11874
11721
11618
11625
11614
11595
11646
11743
12069
12192
12261
12242
12085
11626
11565
11556
11607
11700
11861
12121
12246
12394
12548
12694
12848
12851
12871
12937
12871
12624
12500
12342
12213
12128
12049
11939
11913
11845
11742
11653
11543
11539
11591
11607
11693
11781
11921
11948
11999
12104
12242
12483
12600
12724
12873
12924
12874
12730
12590
12427
12285
12217
12038
11955
11885
11821
11767
11609
11508
11464
11442
11490
11531
11752
11856
11972
12091
12150
12290
12408
12490
12606
12742
12813
12900
