12135
12179
12195
12166
12048
12020
12005
11999
12010
12039
12015
11971
11973
12020
12048
12041
12070
12075
12058
12081
12148
12133
12176
12226
12229
12199
12042
11917
11838
11840
11885
11990
12064
12186
12280
12365
12448
12487
12568
12587
12575
12565
12405
12287
12129
12002
11932
11799
11771
11791
11766
11711
11722
11911
12003
12125
12237
12314
12429
12479
12492
12449
12387
12249
12143
12034
11943
11893
11892
11963
11996
11976
11963
11976
12046
12049
12028
11990
11983
11985
12049
12139
12214
12238
12231
12295
12347
12351
12325
12286
12251
12179
12147
12158
12193
12221
12226
12191
12123
12077
12033
12016
11920
11836
11800
11796
11831
12024
12092
12142
12160
12135
12156
12219
12254
12214
12128
12009
11952
12045
12156
12245
12356
12495
12521
12484
12439
12397
12275
12187
12047
11871
11755
11684
11629
11563
11510
11540
11649
11967
12080
12140
12183
12221
12257
12385
12447
12487
12516
12531
12515
12437
12342
12230
12198
12225
12228
12210
12153
12113
12036
11813
11732
11745
11803
11885
12031
12097
12114
12093
12083
12133
12208
12194
12186
12163
12108
12098
12126
12169
12225
12274
12318
12321
12302
12293
12262
12173
11981
11972
12013
12071
12115
12143
12116
12114
12111
12105
12097
12064
12071
12116
12146
12163
12169
12187
12252
12269
12202
12094
11864
11834
11853
11875
11896
11992
11998
12030
12061
12030
11965
12003
12087
12172
12281
12405
12519
12530
12533
12497
12439
12248
12181
12107
12087
12055
12028
11999
11939
11861
11824
11838
12033
12084
12120
12150
12174
12216
12135
12035
11955
11904
11904
12008
12027
12046
12037
12003
12034
12031
11988
11987
12051
12129
12130
12123
12135
12180
12214
12220
12277
12310
12322
12364
12401
12307
12251
12257
12258
12201
12059
12022
11984
11980
12014
12187
12218
12268
12345
12448
12536
12455
12337
12244
12189
12178
12126
12073
12059
12056
11999
11946
11798
11705
11646
11681
11782
11978
12065
12119
12111
12086
11982
11978
12029
12108
12159
12142
12078
12089
12184
12313
12416
12381
12317
12299
12321
12291
12158
11908
11905
11935
12000
12120
12281
12224
12139
12088
12067
12028
12013
12000
11964
11886
11789
11630
11648
11702
11732
11801
12010
12133
12269
12373
12422
12457
12488
12489
12522
12542
12471
12313
12234
12204
12234
12280
12309
12283
12249
12265
12285
12301
12170
12054
11920
11853
11807
11706
11744
11814
11921
11995
12042
12126
12157
12251
12365
12428
12405
12349
12274
12229
12206
12189
12088
12041
12047
12090
12136
12181
12176
12139
12074
12020
11946
11809
11842
11895
11938
11966
12007
12038
12116
12229
12257
12087
12092
12145
12210
12245
12212
12081
11985
11909
11836
11762
11736
11793
11873
11989
12165
12371
12563
12585
12614
12677
12716
12610
12494
12343
12181
12049
11992
12008
11990
11987
11985
11966
11920
11942
12002
12037
12022
12017
12021
11988
11991
12035
12063
12111
12156
12242
12353
12420
12403
12373
12308
12267
12220
12044
11921
11803
11703
11614
11597
11762
11845
11916
11960
12023
12177
12229
12234
12206
12183
12182
12290
12343
12372
12344
12286
12112
12024
11925
11816
11723
11719
12020
12233
12384
12462
12480
12492
12496
12506
12471
12447
12585
12656
12611
12496
12461
12422
12263
12227
12170
12055
11904
11625
11561
11535
11490
11483
11560
11723
11737
11749
11789
11816
11661
11594
11598
11716
11865
12014
11957
11898
11888
11956
12098
12531
12674
12742
12762
12775
12782
12773
12737
12650
12556
12465
12220
12165
12129
12133
12132
12099
12088
12109
12076
11962
11884
12035
12064
12027
11996
12003
12074
12088
12091
12067
12049
12071
11989
11980
12074
12106
12032
11976
12004
12074
12233
12317
12183
12144
12096
12015
11930
11912
11957
12010
12035
12030
11971
11797
11779
11821
11888
12017
12294
12367
12395
12381
12391
12390
12400
12433
12454
12440
12413
12353
12333
12305
12254
12280
12314
12060
11914
11850
11828
11812
11860
11870
11912
11957
12035
12158
12277
12209
12098
12000
11895
11775
11701
11641
11582
11563
11775
11905
12100
12308
12473
12590
12598
12533
12450
12357
12242
12204
12284
12386
12564
12765
12944
13046
13032
12997
12948
12863
12526
12332
12127
11925
11685
11444
11371
11275
11167
11038
10899
10795
10909
11110
11313
11474
11648
11795
11955
12161
12381
12613
12896
12928
12930
12871
12762
12605
12601
12621
12612
12631
12730
12576
12372
12199
12085
12082
12186
12148
12007
11825
11619
11242
11150
11158
11224
11277
11353
11587
11712
11798
11816
11832
12063
12275
12491
12718
12914
13005
13010
12948
12879
12804
12691
12512
12432
12290
12132
12041
11827
11710
11646
11596
11643
11747
12064
12232
12367
12463
12525
12600
12529
12523
12542
12539
12503
12206
12019
11872
11780
11717
11557
11531
11497
11499
11576
11783
11821
11814
11813
11882
12029
12351
12360
12305
12172
12003
11929
12034
12117
12092
12044
12039
11879
11856
11943
12064
12110
12238
12444
12706
12997
13241
13392
13311
13161
13034
12882
12676
12150
11878
11639
11478
11316
11085
11023
10957
10912
10911
10972
10907
10940
11165
11494
11864
12523
12740
12926
13038
12993
12880
12713
12683
12681
12696
12716
12790
12795
12774
12787
12906
13226
13396
13328
13132
12955
12762
12186
11766
11273
10841
10524
10406
10370
10290
10131
10018
10054
10604
10927
11307
11718
12093
12657
12863
13038
13182
13305
13356
13299
13235
13107
12955
12796
12552
12462
12382
12323
12338
12522
12528
12473
12403
12393
12380
12387
12358
12235
12070
11925
11611
11428
11300
11239
11259
11307
11395
11379
11441
11685
11982
12439
12545
12651
12724
12686
12416
12204
11998
11766
11595
11501
11438
11583
11783
11891
12002
12257
12298
12346
12477
12630
12872
13515
13658
13595
13433
13194
12409
12048
11856
11766
11640
11420
11264
11107
11005
10961
10925
10937
10982
11065
11176
11392
11843
12067
12280
12431
12526
12647
12900
13014
13135
13265
13366
13324
13276
13223
13138
13037
12900
12653
12561
12443
12262
12053
11698
11663
11606
11415
11124
10465
10203
10184
10370
10623
10922
11704
12204
12541
12797
13047
13330
13299
13204
13047
12873
12636
12083
11964
11862
11763
11669
11417
11335
11378
11534
11715
12093
12410
12672
12772
12786
12735
12691
12894
12979
12877
12621
12116
11956
11844
11856
11897
11814
11784
11827
11784
11735
11786
11934
11978
12033
12140
12327
12624
12527
12343
12217
12146
12091
11696
11506
11407
11288
11144
10715
10545
10549
10665
10910
11342
11985
12195
12405
12737
13097
13473
13472
13462
13470
13470
13460
13186
13019
12860
12756
12834
12866
12624
12370
12186
12038
12012
12187
12394
12500
12463
12280
12088
12084
12095
12112
12030
11695
11472
11200
10883
10485
10142
10309
10497
10583
10914
11506
12432
12570
12600
12609
12581
12625
12734
12871
13061
13242
13528
14180
14159
13870
13593
13426
13029
12811
12412
11934
11417
10814
9551
9075
8915
8972
9168
9421
9904
10534
11112
11526
11773
11886
12160
12313
12409
12589
12826
13071
13145
13360
13638
13791
13812
13665
13529
13439
13422
13541
14084
14108
13849
13477
13028
12125
11825
11650
11486
11273
10874
9821
9472
9111
8834
8864
9267
9955
10712
11340
11845
12245
12847
13070
13296
13597
14082
14643
15095
14918
14653
14307
14001
13250
12743
12284
12171
12404
12506
11399
10513
9963
9868
9968
10165
10345
10349
10334
10278
10164
9971
9734
9783
10082
10378
11265
11887
12455
12897
13261
14219
14532
14589
14554
14386
14152
13476
13268
13181
13017
12699
12360
12372
12200
11994
11911
11819
11472
11494
11484
11315
11148
11190
11280
11241
11196
11223
11756
12128
12245
12200
12314
12609
13189
13273
13182
12975
12695
11999
12126
12500
12666
12731
12653
12239
12069
12079
12115
12040
11569
11325
11158
10934
10745
10774
12001
12892
14032
14961
15256
14715
14106
13597
13108
12447
10310
9348
8660
8369
8158
8024
8214
8867
9721
10547
11454
12236
12695
12878
12944
13084
13042
12914
12854
14053
14494
14385
14025
13826
13833
13777
13670
13826
14274
14717
14052
13250
12547
12040
11878
11967
11570
10663
9548
8742
8153
7949
8173
8647
9200
9623
9986
10445
11970
12497
12766
12896
12879
12786
12588
12505
12546
12479
12150
12601
13463
14319
14864
15186
15529
15014
13920
12799
12072
11818
11344
11408
11590
11776
12133
11946
11991
12125
11933
11562
11396
10130
9016
7796
7250
7657
8605
9473
10082
10581
10962
11367
12084
12607
13190
13828
14320
14934
15014
14853
14570
14472
14491
14201
14130
14357
14488
14436
13654
13572
13675
13763
13628
13425
12762
11904
10956
10225
9731
9114
8275
7591
7545
8835
9347
9926
10684
11546
12092
12102
11707
11574
13266
14072
14185
13941
13458
12240
12085
12114
11963
11971
13551
14717
15017
14478
14207
14253
13530
12797
12015
11187
10375
8573
7467
6581
6353
6695
7435
8195
9251
10703
12372
13911
14961
15551
16925
17183
17209
17544
17473
15609
14508
13348
11984
10309
8878
8004
7518
7111
7109
8318
8661
9128
9807
11237
13519
15645
16740
16606
15710
14414
14132
13669
12783
11662
9633
8442
8012
8704
9920
10694
11154
11574
12117
12795
13625
13514
13137
12586
12021
11543
11675
12037
12463
13010
13812
17102
18530
19429
19980
20153
16899
14233
11743
9857
8430
6958
5445
4190
3276
2966
3026
3424
4532
6131
7776
8957
10031
12585
13642
14804
16080
17200
17850
18240
18363
18540
18137
17113
14323
13406
12398
10869
9453
8256
7513
7773
9008
10654
13347
13620
13104
12088
10951
10023
8153
7256
7415
8956
10993
12867
14319
15195
15840
16033
15351
14578
13881
13005
11486
10625
10042
10275
10910
11585
12562
12610
12664
12508
11957
9350
8779
9021
9543
10022
10336
10959
12129
13602
15065
15179
15347
15359
15066
14572
13264
12681
12256
12151
12385
12348
11992
11869
11746
11694
11523
11216
10883
10236
9164
8542
8769
9414
10611
14014
14693
14945
15039
15014
14644
13607
12734
11571
10324
9066
8111
7584
7595
8965
10873
13985
14926
15509
15572
15134
13629
12991
12206
11141
10249
9516
9014
9392
11922
12983
13667
14304
14510
14180
13017
12875
13268
13155
12143
10132
9672
9572
9927
10410
10698
10888
10637
8634
8770
9852
11748
14207
16599
18128
18748
18559
16610
15323
13944
12499
11075
7810
6256
5175
4822
5574
7419
9797
12003
13503
14479
15392
16028
15899
15224
14305
13237
11744
9452
9329
9404
9641
10320
11535
13107
14487
15238
15929
15786
15356
14810
14081
13303
11883
11850
11874
11335
10898
11349
11219
11122
11210
11235
11180
10214
9638
9523
9697
9923
10137
10543
11165
11334
10495
10600
11064
11611
12047
12738
13090
13283
13141
12912
12779
13288
14075
14558
14776
14998
15663
15813
16030
16216
15756
13251
11762
10338
9248
8511
7874
7693
8253
9174
10346
11659
13241
13976
14228
13921
13523
12834
11644
11236
10663
9862
9249
8929
8849
9233
9792
10222
10494
11231
11082
10736
10713
11324
12808
13106
13375
13846
14405
14920
15114
15566
16090
16274
16199
15647
15309
14305
12845
11281
8423
7507
7083
6889
6968
7519
8443
9500
10374
10949
11384
11901
12529
15119
16228
16640
16625
16399
15392
14582
13625
12584
11422
10082
7250
6540
6869
8165
9807
11138
11946
12425
12897
13311
14147
14896
15626
16157
16455
16185
15454
14528
13565
12651
11803
9286
8077
7062
6632
6796
7173
7689
8641
10034
11198
11961
12509
13289
13436
13433
13422
13413
13357
13193
13067
12829
12664
12749
13330
13488
13444
13259
13039
12997
13776
13659
13169
12730
12318
11623
11482
11631
11945
12114
11453
11045
10832
10765
10726
10484
9611
9550
10001
10514
10925
11439
11962
12411
12542
12807
13128
13378
13427
13361
13244
13133
13077
13015
12978
12877
12617
12443
12388
12555
12826
12954
13047
13065
12955
12329
12080
11829
11419
10816
9649
9360
9330
9672
10340
11085
11701
12153
12429
12773
12925
13019
13166
13269
13168
13043
13114
12998
12729
12599
12414
12051
11706
11520
11430
11257
11074
10885
10993
11337
11682
12266
12501
12629
12699
12798
13037
12988
12848
12743
12642
12570
12435
12392
12373
12235
11936
11519
11590
11681
11768
11882
11980
12539
12698
12618
12338
11995
11529
11591
11706
11768
11769
11485
11264
11219
11399
11607
11668
11997
12218
12340
12386
12421
12449
12510
12578
12572
12524
12506
12556
12572
12553
12473
12364
12127
12034
11969
11948
11977
12089
12128
12165
12209
12281
12421
12776
13114
13320
13252
13031
12573
12426
12291
12100
11768
11391
10770
10567
10421
10476
10730
11662
12070
12239
12237
12195
12126
11978
11966
11980
11993
12038
12265
12208
12169
12257
12402
12628
12633
12591
12511
12433
12393
12505
12577
12603
12577
12539
12336
12240
12214
12193
12118
12006
11665
11545
11506
11538
11659
11979
12122
12261
12308
12306
12235
12184
12231
12328
12356
12302
12237
12232
12169
12113
12107
12223
12114
12012
11920
11824
11697
11832
11830
11839
11916
11967
11933
11854
11786
11815
11895
12074
12240
12464
12708
12918
13045
13016
12959
12864
12698
12485
11933
11611
11320
11145
11149
11189
11333
11499
11732
12016
12331
12722
12788
12823
12795
12727
12688
12368
12255
12144
12084
12013
11382
11399
11441
11768
11967
12084
12016
11948
11962
12015
12043
11996
12039
12082
12120
12185
12324
12427
12490
12499
12498
12493
12372
12286
12249
12259
12340
12237
12131
12005
11884
11826
11806
11845
11890
11932
11905
11807
11704
11768
11826
11911
12063
12364
12406
12422
12434
12435
12440
12663
12883
13151
13362
13435
13291
13152
12978
12761
12446
12035
11153
10751
10296
9885
9715
9864
10157
10517
11383
11692
11913
12128
12318
12581
12640
12631
12558
12523
12551
12611
12612
12600
12567
12538
12495
12519
12578
12624
12652
12602
12572
12509
12436
12347
12246
11985
11879
11852
11880
11894
11797
11760
11823
11969
12079
12137
12123
12094
12063
12019
11932
11789
11726
11714
11743
11799
11967
12057
12092
12127
12211
12317
12546
12598
12601
12567
12517
12419
12360
12293
12250
12200
12148
11953
11862
11837
11833
11895
12082
12083
12069
12063
12121
12187
12156
12109
12075
12022
11939
11586
11419
11405
11542
11761
12139
12295
12454
12600
12644
12616
12541
12457
12353
12261
12148
11978
11901
11826
11739
11593
11444
11456
11603
11843
12104
12293
12416
12453
12467
12456
12446
12441
12427
12399
12368
12311
12245
12277
12438
12592
12739
12835
12866
12794
12698
12552
12349
12103
11694
11519
11343
11175
11055
11094
11127
11199
11311
11461
11815
11897
11970
12049
12183
12293
12391
12401
12390
12348
12338
12444
12472
12502
12595
12632
12620
12559
12459
12334
12252
12168
11951
11909
11929
11881
11862
11953
12177
12237
12259
12242
12202
12103
12073
12141
12257
12351
12481
12555
12557
12567
12556
12564
12530
12391
12121
11809
11484
11066
10883
10760
10667
10629
10680
11114
11381
11630
11842
12043
12435
12572
12684
12764
12796
12794
12794
12792
12772
12738
12694
12545
12460
12380
12328
12349
12466
12535
12627
12652
12643
12621
12572
12526
12436
12304
12195
12012
11866
11705
11577
11396
11200
10998
11031
11167
11355
11512
11798
11922
12037
12138
12203
12329
12393
12448
12500
12531
12542
12545
12560
12586
12618
12664
12665
12645
12605
12540
12415
12315
12103
12014
11953
11844
11711
11396
11238
11149
11155
11227
11335
11477
11701
11887
11997
12062
12107
12180
12284
12389
12460
12645
12760
12854
12887
12890
12901
12888
12818
12729
12618
12522
12320
12181
12041
11909
11748
11472
11412
11370
11314
11286
11326
11546
11662
11807
11970
12142
12384
12421
12432
12420
12352
12278
12130
12085
12003
11926
11937
12248
12383
12404
12351
12333
12358
12514
12612
12703
12768
12789
12649
12466
12292
12143
12015
11800
11741
11752
11795
11808
11797
11611
11557
11505
11500
11573
11885
11898
11781
11702
11728
11794
12111
12300
12430
12497
12543
12534
12484
12442
12399
12325
12160
12122
12104
12101
12099
12096
12128
12131
12136
12165
12204
12250
12230
12193
12128
12078
12052
12059
12040
11999
11929
11836
11784
11880
11961
12052
12124
12174
12177
12178
12162
12140
12126
12205
12304
12419
12533
12621
12587
12491
12398
12336
12288
12242
12069
11922
11790
11716
11683
11703
11780
11882
11985
12056
12137
12190
12193
12181
12131
12094
12133
12226
12420
12591
12677
12619
12598
12588
12603
12534
12427
12184
12047
11837
11576
11385
11312
11353
11424
11533
11690
11830
11763
11577
11447
11415
11493
11946
12150
12330
12472
12567
12680
12696
12689
12657
12591
12531
12544
12538
12523
12451
12354
12165
12101
12089
12104
12151
12159
12081
12049
12021
11996
11987
11964
11942
11932
11923
11907
11919
11970
11962
11983
12034
12100
12198
12239
12276
12276
12265
12344
12382
12382
12371
12352
12328
12193
12113
12050
11996
11950
11989
12087
12168
12198
12181
12124
11996
11996
12021
12022
12022
12013
11982
11953
11938
11911
11891
11937
11995
12065
12115
12188
12380
12423
12479
12509
12506
12399
12356
12308
12245
12202
12187
12086
12013
11943
11858
11786
11717
11726
11711
11711
11707
11689
11617
11608
11683
11803
11891
12030
12052
12100
12178
12238
12293
12332
12376
12426
12477
12579
12762
12778
12763
12724
12658
12428
12262
12065
11917
11848
11841
11987
12068
12135
12174
12160
12037
12005
12002
12022
12045
12118
12117
12061
12003
11981
11989
12115
12183
12208
12202
12176
12114
12067
12042
12065
12131
12193
12318
12313
12312
12309
12269
12241
12252
12276
12258
12214
12033
11891
11753
11680
11662
11675
11811
11872
11923
11981
12019
12109
12196
12280
12330
12346
12305
12181
12115
12084
12071
12034
12061
12133
12166
12194
12236
12251
12225
12207
12190
12175
12166
12145
12129
12108
12075
12069
12169
12228
12310
12329
12304
12247
12046
11981
11953
11943
11938
11893
11927
11974
12015
12046
12061
12178
12236
12259
12250
12268
12268
12255
12189
12061
11944
11899
11890
11924
11989
12086
12228
12391
12426
12445
12419
12364
12094
11882
11771
11788
11852
11890
11898
11973
12046
12086
12084
12055
12040
11999
11927
11848
11946
12100
12262
12432
12544
12598
12586
12573
12551
12498
12431
12201
12054
11939
11846
11786
11739
11804
11879
11937
12043
12167
12370
12398
12398
12375
12341
12283
12142
12100
12053
12011
11961
11879
11856
11819
11786
11804
11958
12045
12123
12190
12240
12278
12328
12296
12234
12169
12120
12035
11993
11990
11985
12022
12109
12363
12524
12636
12670
12652
12509
12385
12286
12181
12047
11811
11734
11708
11669
11623
11592
11636
11761
11896
11994
12092
12243
12266
12224
12128
12031
11958
11882
11861
11805
11796
11883
12047
12134
12277
12443
12581
12689
12706
12666
12614
12553
12520
12542
12499
12400
12307
12251
12125
11995
11889
11817
11806
11841
11901
11885
11888
11896
11901
11815
11818
11885
11948
11963
11991
12086
12135
12171
12178
12176
12189
12208
12212
12222
12242
12293
12316
12302
12285
12245
12195
12128
12072
12052
12075
12079
12093
12099
12051
12010
11990
12015
12134
12201
12265
12348
12397
12455
12468
12386
12224
12037
11835
11507
11454
11492
11595
11722
12031
12118
12175
12229
12326
12488
12536
12568
12564
12510
12409
12069
11870
11702
11609
11593
11713
11760
11823
11957
12132
12262
12376
12456
12564
12621
12620
12520
12451
12379
12309
12218
12125
12102
12014
11912
11856
11862
11869
11905
11945
11971
11974
12022
12017
12014
12048
12111
12127
12133
12152
12190
12244
12270
12169
12195
12239
12237
12208
12190
12197
12200
12168
12109
12066
12025
12011
11995
12008
12068
12094
12078
12092
12101
12083
12045
12114
12124
12073
12036
12021
11987
11998
12010
12042
12097
12155
12309
12334
12286
12253
12234
12124
12045
11994
11955
11935
12107
12250
12398
12508
12525
12487
12395
12295
12130
11993
11872
11553
11468
11492
11599
11733
11879
12104
12161
12271
12421
12527
12547
12527
12548
12581
12565
12360
12244
12174
12069
11961
11891
11823
11832
11872
11903
11971
12139
12160
12152
12138
12107
12066
12043
12068
12117
12134
12126
12173
12228
12257
12248
12202
12139
12066
12096
12145
12121
12084
12084
12096
12116
12152
12187
12175
12059
11926
11843
11798
11780
11960
12141
12279
12394
12505
12622
12605
12517
12413
12317
12232
12127
12072
12022
11969
11910
11741
11745
11799
11873
11939
12025
12048
12032
11998
12020
12010
11810
11737
11707
11697
11684
11401
11352
11350
11418
11573
11757
12223
12465
12715
12933
13102
13249
13256
13212
13119
12999
12900
12847
12764
12647
12488
12322
12118
12042
12016
11990
11952
11931
11890
11799
11697
11653
11667
11710
11722
11725
11767
11835
11999
12078
12147
12182
12209
12242
12221
12138
12056
12001
11957
11922
11927
11923
11891
11882
11967
12024
12076
12126
12172
12214
12266
12210
12136
12080
12017
11962
11985
12042
12091
12133
12171
12252
12286
12352
12377
12345
12212
12155
12136
12098
12020
11844
11824
11896
11987
12050
12149
12365
12428
12431
12325
12189
11964
11886
11881
11925
11953
11929
11917
11963
11991
12041
12146
12464
12600
12694
12753
12733
12591
12248
12139
12047
11931
11831
11688
11685
11726
11804
11899
12042
12110
12190
12239
12301
12352
12407
12385
12365
12332
12323
12291
12222
12189
12194
12175
12145
12191
12246
12302
12319
12305
12134
11987
11882
11814
11764
11675
11656
11693
11743
11773
11778
11837
11895
11924
11974
12055
12192
12261
12340
12440
12524
12563
12428
12370
12350
12347
12292
12154
12150
12151
12132
12102
11946
11913
11932
11909
11817
11773
11874
11972
12059
12136
12226
12317
12297
12219
12087
11969
11871
11605
11531
11621
11811
12043
12367
12440
12442
12409
12415
12465
12529
12510
12476
12456
12487
12455
12356
12198
12026
11911
11868
11793
11647
11404
11053
10886
11184
11458
11829
12185
12485
12835
12928
12991
12939
12827
12760
12778
12716
12581
12444
12329
12086
11962
11755
11465
11126
10669
10641
10586
10604
10912
11480
12389
12828
13124
13412
13637
13613
13317
12995
12798
12679
12542
12549
12691
12830
12875
12916
12716
12518
12413
12363
12303
12266
12116
11986
11981
12111
12387
12635
12551
12409
12141
11760
11214
11035
10834
10644
10589
10656
10840
10961
11084
11215
11356
11626
11718
11825
11974
12148
12331
12573
12631
12702
12800
12869
12882
12845
12815
12782
12846
12878
12769
12623
12467
12318
12188
11851
11723
11627
11531
11470
11529
11563
11560
11555
11537
11453
11209
11232
11375
11581
11748
12040
12140
12220
12325
12471
12777
12881
12911
12891
12894
12892
12822
12727
12547
12343
12175
11886
11628
11306
11121
11107
11186
11503
11639
11814
11950
12077
12472
12768
13018
13168
13259
13274
13174
13039
12873
12658
12402
11946
11826
11720
11580
11443
11158
11129
11199
11300
11365
11467
11753
11866
11920
11987
12051
12292
12516
12787
13044
13263
13354
13115
12804
12476
12237
12134
11881
11731
11670
11640
11590
11675
11811
11948
12034
12090
12040
11855
11796
11871
12056
12202
12351
12508
12631
12637
12573
12468
12116
12010
11952
11868
11802
11763
11644
11528
11529
11592
11632
11851
12038
12182
12280
12358
12498
12545
12623
12723
12810
12769
12599
12156
11682
11410
11326
11603
11784
11887
11963
12084
12473
12659
12836
13015
13109
13043
12550
12306
12042
11836
11693
11389
11282
11289
11332
11390
11680
11876
12052
12218
12328
12391
12448
12540
12692
12817
12895
12979
12933
12791
12551
12277
11958
11585
11610
11644
11689
11708
11759
11839
11951
12057
12104
12163
12139
12105
12170
12267
12356
12403
12380
12241
12076
11984
11777
11635
11582
11615
11740
11901
12013
11966
11909
11917
12020
12288
12333
12345
12397
12451
12421
12228
12096
12014
11974
12001
12032
12063
12110
12166
12211
12291
12396
12432
12449
12455
12421
12192
12032
11897
11770
11584
11148
11184
11381
11621
11810
11919
12094
12149
12170
12202
12297
12483
12510
12480
12410
12364
12438
12481
12479
12438
12381
12359
12438
12487
12546
12602
12681
12783
12682
12563
12445
12321
12249
12169
12107
12019
11918
11822
11504
11266
11089
11062
11091
11200
11420
11549
11681
11800
11922
12319
12478
12602
12719
12841
12889
12829
12766
12606
12307
11933
11035
10913
11062
11351
11673
12290
12489
12579
12637
12636
12580
12340
12236
12180
12151
12157
12283
12377
12472
12506
12497
12360
12293
12254
12215
12169
12117
11688
11484
11423
11460
11499
11576
11574
11616
11697
11842
12004
12296
12448
12576
12682
12728
12774
12841
12897
12859
12714
12483
11978
11801
11730
11771
11917
12260
12414
12496
12524
12495
12372
12198
11930
11649
11466
11375
11209
11247
11406
11575
11690
11995
12146
12203
12248
12323
12335
12350
12380
12334
12267
12206
12199
12203
12197
12185
12176
12102
12122
12185
12244
12284
12272
12173
12180
12272
12353
12372
12344
12312
12237
12145
12103
12129
11970
11883
11869
11889
11921
11978
11965
11935
11937
11984
12112
12085
12059
12075
12115
12190
12351
12421
12422
12339
12208
11999
11954
11823
11713
11723
11902
12311
12402
12448
12479
12492
12494
12499
12474
12395
12319
12297
12140
12025
11937
11876
11872
11881
11820
11757
11727
11740
11838
11855
11876
11909
11963
12049
12238
12306
12348
12377
12367
12477
12481
12446
12359
12187
12049
11955
11889
11859
11895
11921
11985
12011
11962
11874
11837
11919
11964
12005
12039
12085
12181
12335
12310
12224
12151
12175
12407
12431
12383
12310
12298
12313
12222
12112
11988
11932
11939
12098
12156
12096
11989
11950
12012
12191
12205
12199
12203
12226
12350
12361
12320
12288
12236
12237
12332
12426
12462
12474
12513
12402
12230
12047
11891
11758
11561
11573
11692
11814
11917
12018
12102
12121
12084
12033
11968
11850
11852
11856
11807
11790
11874
11843
11858
11985
12096
12140
12081
12018
12008
12060
12079
12011
11996
12069
12219
12323
12410
12442
12451
12469
12457
12473
12485
12442
12392
12337
12285
12176
12168
12182
12199
12259
12335
12418
12396
12361
12320
12277
12085
12003
11929
11922
11948
11995
12036
12087
12094
12085
12099
12060
11983
11881
11780
11747
11764
11825
11935
12006
11958
11888
11902
11899
11903
11936
12010
12214
12230
12174
12105
12040
12038
12242
12322
12378
12424
12418
12260
12118
11993
12037
12166
12310
12466
12447
12429
12488
12513
12294
12217
12219
12248
12238
12029
11843
11657
11566
11601
11680
12101
12360
12554
12656
12651
12503
12319
12091
11837
11684
11637
11678
11711
11742
11749
11686
11599
11615
11648
11695
11778
11840
11979
12143
12304
12459
12582
12727
12731
12703
12643
12569
12356
12301
12256
12228
12234
12247
12050
11905
11860
11830
11860
11967
12052
12124
12206
12272
12323
12325
12300
12230
12133
12089
12036
11986
11916
11891
11884
11849
11887
11949
12008
12064
12100
12269
12424
12519
12531
12476
12436
12392
12281
12150
12080
12065
12026
11987
11951
11909
11815
11661
11669
11804
11949
12040
12282
12396
12431
12452
12452
12418
12235
12201
12218
12257
12266
12200
12182
12136
11969
11749
11717
11917
11989
12031
11989
11909
11678
11623
11659
11743
11821
11934
12252
12414
12498
12520
12515
12518
12539
12601
12720
12814
12914
12887
12830
12780
12694
12525
12128
11965
11891
11864
11785
11566
11480
11433
11424
11386
11300
10884
10807
10891
11047
11222
11694
11850
11891
11978
12161
12563
12752
12949
13083
13154
13232
13318
13207
13073
12951
12824
12374
12164
11934
11701
11501
11353
11335
11338
11374
11428
11564
11869
12013
12187
12386
12505
12590
12523
12408
12332
12278
12253
12193
12110
11974
11839
11743
11742
11782
11861
11942
12078
12238
12464
12515
12527
12525
12531
12560
12578
12587
12585
12592
12550
12293
12126
11947
11807
11709
11751
11869
11943
11897
11737
11354
11267
11257
11302
11460
11652
12003
12096
12103
12054
12022
12131
12240
12350
12439
12507
12586
12747
12837
12905
12926
12901
12760
12643
12475
12275
12175
12154
12148
12114
12129
12174
12310
12508
12510
12458
12383
12337
12209
12064
11995
11954
11888
11784
11676
11649
11526
11362
11288
11425
11427
11366
11252
11151
11126
11328
11486
11632
11745
11803
12146
12379
12597
12802
13015
13308
13370
13454
13453
13343
13142
12545
12219
12006
11868
11652
11316
11360
11352
11288
11179
11073
11240
11490
11710
11976
12230
12587
12748
12900
12980
13029
13083
13125
13167
13189
13204
13171
12864
12572
12197
11824
11527
11410
11471
11537
11590
11591
11415
11025
10964
10975
10980
10956
11084
11363
11686
11985
12215
12372
12603
12707
12729
12698
12633
12448
12455
12545
12593
12606
12583
12534
12445
12321
12206
12150
12127
12140
12163
12142
12127
12510
12769
12984
13096
13110
12968
12333
12087
11966
11963
12088
11999
11742
11474
11225
10930
10710
10905
11148
11463
11788
12033
12485
12593
12580
12604
12669
12610
12406
12265
12230
12158
12006
11832
11927
11974
12036
12085
12313
12399
12537
12664
12734
12819
12631
12356
12212
12133
12039
11618
11387
11083
10779
10610
10614
10825
11177
11753
12310
12661
13171
13398
13572
13638
13642
13450
13362
13393
13427
13305
12941
12097
11859
11969
12563
13133
13304
13005
12765
12362
11737
10336
9831
9397
9072
9009
9169
9192
9012
8936
9119
9607
10207
10731
11245
11847
13009
13374
13846
14250
14351
13896
13661
13437
13195
12989
12942
12986
12877
12645
12340
12103
12083
12158
12309
12421
12516
12716
13108
13293
13709
13995
13996
14361
14361
14047
13562
13020
11670
10922
10308
9619
8728
8180
7883
7635
7576
7893
8434
9253
10103
10852
12341
13212
13939
14301
14173
13845
14153
14474
14553
14599
14585
13994
13732
13378
12716
11965
11190
10935
10701
10478
10432
10463
10845
10938
11005
11087
11142
11755
11944
12058
12261
12476
12577
12697
12802
12978
13104
13261
13788
13661
13484
13316
13059
12631
12516
12310
12107
11883
11600
11066
10893
10888
11060
11247
11118
11017
11047
11161
11184
11175
12050
12543
12740
12757
12594
12472
12711
12962
13134
13119
13043
13375
13377
13001
12396
11970
12355
12975
13490
13905
14236
13885
13191
12533
12095
11745
11349
10338
9574
8624
7759
7252
7373
8092
9076
10307
11563
12693
13789
14921
15172
15264
15383
15409
14653
13747
12743
11955
11312
9919
9563
9796
10457
11271
11818
12104
12091
12112
12352
12143
11858
11726
11942
12123
12004
11972
12060
12047
11593
11300
11016
11006
11165
11096
11977
13471
14907
15936
16431
16657
16434
15995
15360
14364
13078
9977
8299
6617
5203
4467
4719
5858
7480
9209
10792
12153
13091
13792
14074
14053
14432
15483
16412
16709
15634
15104
14660
14259
13861
13188
12978
12555
11677
9964
8006
6786
6695
7316
8126
8950
9681
10513
11531
11798
11819
11848
12121
12921
13413
13662
13394
12948
12734
12835
12838
12837
12838
13113
12790
12730
12960
13077
13037
13059
13361
13829
14111
13995
13707
13146
12518
11646
10786
9936
9258
8961
9107
9785
10599
12450
13236
13670
13757
13464
13047
12800
12196
11548
11079
10998
11088
10853
10549
10151
10301
11029
11625
12732
13834
14891
15489
14821
14235
13799
13319
12916
12531
11989
11508
10871
10356
10289
10579
10559
10198
9798
9851
10294
10536
10458
10340
10353
11126
12053
14091
15339
16612
17420
17532
16113
14837
13468
11942
10115
8183
6574
5469
4942
5198
8019
9785
11033
11948
12798
13539
14022
14312
14350
14029
13722
13573
13754
14502
14582
14835
15185
15208
14825
14857
14910
14536
13858
13348
13555
13720
13675
13394
12909
11002
9947
9335
8894
8405
8024
7849
7797
8047
9000
10545
11911
12686
12945
12594
12335
11722
11050
10621
10231
10145
10267
10728
11201
11599
12171
12185
12163
12430
13069
15119
16875
18276
18999
19042
18679
17572
16545
15386
13668
11789
8086
5962
4417
3634
3611
4568
5669
6321
6663
7194
7932
8952
10253
11391
12155
12543
12752
13130
13552
13952
14413
15208
16927
16778
16177
15522
15054
14248
13767
13068
12239
11535
10926
11916
13303
14672
15732
16231
16615
16427
15906
14846
13195
11418
8594
7731
7181
6540
5896
5946
6845
8157
9073
9866
10705
10938
10907
11290
13080
13550
13551
13008
11998
10814
9714
9865
10426
11483
12759
13770
14188
14199
15142
16266
17102
17615
17716
17151
16131
14766
13218
11641
8749
7617
6671
6001
5642
5873
6874
8444
10004
11223
12225
12963
13345
13033
12677
12668
12880
12921
12542
12779
13365
14289
15325
16190
16278
16466
15936
14565
13059
11353
10989
10358
9598
9274
9319
9186
9026
8949
8842
8993
9608
10618
12198
12496
12602
12662
12813
12971
13002
13171
12971
12558
12295
11741
11568
11641
11785
11921
12077
13425
13901
14005
14062
14461
14947
14973
14976
14621
14112
13119
12533
11707
10890
10100
9655
9815
9973
10114
10645
10234
9880
9858
9931
9857
9862
9959
10281
10687
12997
14277
14774
14699
14244
13642
12339
11391
10356
9612
9407
9776
10366
10722
10077
10440
11202
11856
12320
13197
13549
13758
14046
14378
14585
14440
14179
14001
14014
13919
13630
13522
13329
13129
12684
12230
11690
11550
11595
11876
12147
11937
11640
11340
10912
10532
10343
10905
11285
11354
10990
10593
11127
11641
11972
12065
12086
13506
14164
14393
14306
13909
13421
13058
12733
12345
12004
11493
9881
9513
9879
10489
10886
11128
11275
11344
11386
11701
12087
12459
12872
13260
13656
13656
13477
13246
12979
12053
11415
10832
10270
9929
10055
10858
12806
13375
13541
13436
13272
12726
12368
11917
11377
10851
10579
10965
11588
12204
12587
12808
13010
12997
12986
12987
12995
12901
12841
12848
12903
13038
12995
12663
12417
12045
11734
11513
11420
11461
11520
11441
11340
11123
11265
11529
11728
11938
12171
12409
12385
12297
12198
12167
12226
12198
12201
12437
12700
12886
12741
12468
12228
11996
11739
11276
11151
11091
10994
10846
10943
11300
11793
12233
12472
12564
12657
12726
12797
12835
12829
12871
12919
12928
12898
12839
12774
12664
12526
12237
12000
11978
11947
11913
12032
12187
12295
12268
12095
12072
12029
12001
11883
11501
11151
10733
10363
10251
10729
10982
11258
11566
11900
12229
12776
12890
12931
12945
12929
12894
12859
12837
12795
12727
12619
12506
12573
12576
12522
12523
12511
12343
12175
12147
12198
12026
11866
11745
11640
11656
11826
12097
12060
11980
11949
11971
11904
11820
11714
11608
11478
11385
11394
11447
11550
11705
11945
12385
12622
12838
12933
12934
12924
12732
12675
12603
12517
12418
12092
11877
11630
11446
11412
11679
11864
12171
12420
12469
12427
12290
12299
12331
12347
12382
12451
12399
12312
12180
12003
11883
12007
11970
11855
11732
11672
11808
11905
12050
12183
12341
12608
12703
12733
12695
12561
12383
12193
12121
12035
11949
11923
11905
11850
11796
11735
11662
11762
12152
12173
12155
12149
12138
12016
11910
11696
11480
11426
11532
11580
11652
11754
11887
12018
12168
12223
12313
12405
12455
12436
12463
12505
12535
12528
12509
12424
12379
12340
12302
12293
12427
12464
12517
12601
12667
12673
12596
12511
12386
12291
12248
12203
12054
11920
11820
11710
11429
11415
11481
11523
11544
11566
11541
11553
11705
11930
11955
12407
12448
12668
12827
12829
12767
12557
12435
12318
12097
11806
11117
10841
11092
11329
11440
11980
11363
11083
12714
13373
13375
13435
13250
13045
12821
12563
11990
11802
11643
11551
11466
11418
11407
11474
11656
11850
11966
12154
12293
12425
12502
12510
12457
12492
12645
12889
13038
13032
12855
12778
12691
12521
12331
12005
11851
11609
11305
10985
10784
10866
11078
11279
11398
11492
11805
12032
12200
12315
12352
12367
12481
12524
12508
12450
12385
12349
12362
12366
12295
12194
12113
12132
12146
12151
12202
12308
12564
12642
12673
12723
12791
12706
12586
12414
12203
11992
11788
11496
11406
11389
11409
11431
11550
11709
11878
12058
12242
12401
12377
12367
12384
12398
12453
12543
12491
12403
12286
12155
11953
11941
11925
11878
11869
11876
11744
11702
11770
11851
11884
11934
12014
12057
12084
12126
12140
12099
12087
12106
12156
12236
12303
12334
12411
12439
12401
12360
12370
12371
12384
12389
12351
12117
11973
11875
11820
11765
11668
11699
11741
11841
11972
12072
12157
12246
12350
12387
12360
12193
12113
12107
12167
12307
12602
12677
12774
12850
12835
12799
12681
12521
12307
12116
11946
11734
11706
11697
11677
11658
11690
11796
11716
11587
11516
11522
11536
11506
11406
11303
11342
11456
11769
11862
12010
12220
12461
12708
12719
12699
12654
12587
12374
12266
12279
12506
12726
12856
12853
12828
12747
12625
12518
12311
12168
11959
11740
11524
11285
11019
11109
11298
11464
11619
11645
11626
11673
11741
11783
11969
12109
12206
12287
12368
12478
12556
12575
12620
12688
12718
12677
12594
12509
12390
12276
12203
12170
12175
12130
12082
12098
12204
12200
12143
12070
12046
12055
12000
11942
11868
11746
11654
11802
11923
12003
12061
12089
12115
12140
12187
12228
12265
12280
12350
12468
12615
12718
12777
12750
12705
12626
12506
12383
12238
12040
11958
11906
11913
11870
11597
11572
11591
11590
11492
11169
11127
11175
11218
11324
11447
11716
11930
12143
12341
12511
12731
12808
12824
12823
12771
12703
12627
12632
12599
12553
12484
12384
12325
12250
12166
12101
12100
12065
12035
12028
12015
11987
11941
11926
11899
11884
11876
11764
11714
11688
11747
11849
11923
12041
12092
12151
12257
12411
12769
12888
12975
13039
13041
12964
12597
12407
12266
12124
11968
11493
11255
11118
11037
11016
11393
11570
11641
11614
11510
11457
11551
11599
11695
11828
12021
12294
12368
12426
12452
12480
12524
12601
12611
12601
12582
12559
12514
12498
12492
12485
12460
12465
12480
12466
12478
12522
12536
12512
12474
12422
12353
12237
11976
11847
11704
11598
11497
11453
11507
11571
11628
11664
11651
11734
11833
11920
12000
12071
12102
12181
12348
12608
12887
13114
13364
13285
13108
12936
12780
12460
12255
12024
11809
11633
11457
11128
10976
10947
10989
10957
10827
10824
10925
11126
11319
11511
12037
12330
12617
12860
13057
13337
13405
13416
13374
13268
12919
12718
12535
12328
12136
11999
11724
11594
11485
11380
11285
11236
11282
11313
11339
11379
11466
11811
11904
11992
12109
12242
12475
12532
12574
12596
12609
12595
12598
12607
12597
12557
12509
12459
12435
12403
12365
12317
12226
12201
12191
12188
12177
12161
12145
12153
12163
12150
12133
12081
12050
12037
12036
12047
12058
12125
12160
12192
12208
12208
12150
12103
12071
12061
12060
12067
12083
12077
12039
12051
12090
12102
12137
12191
12267
12330
12318
12273
12200
12105
12008
11874
11658
11647
11691
11774
11841
11903
11900
11907
11960
12033
12161
12173
12262
12383
12490
12601
12739
12693
12576
12459
12316
12063
12052
12071
12099
12128
12151
12124
12133
12178
12179
12052
11884
11837
11797
11759
11665
11549
11437
11389
11389
11465
11583
11833
11983
12149
12296
12401
12419
12416
12410
12382
12344
12269
12129
12196
12307
12440
12519
12662
12742
12777
12742
12659
12568
12445
12359
12279
12145
12014
11888
11814
11734
11660
11607
11658
11743
11774
11811
11911
12071
12404
12553
12636
12614
12561
12503
12425
12314
12225
12168
12125
12042
12021
12044
12048
12045
11932
11828
11730
11597
11397
11207
11263
11437
11670
11862
11998
12223
12343
12445
12521
12550
12538
12532
12507
12484
12451
12421
12367
12364
12351
12302
12261
12260
12236
12215
12194
12177
12134
11971
11863
11780
11720
11695
11739
11811
11933
12038
12083
12207
12325
12442
12500
12504
12466
12298
12188
12089
11928
11757
11626
11635
11685
11768
11935
12138
12433
12542
12620
12641
12588
12340
12222
12088
11944
11816
11792
11883
11949
12010
12051
12078
12125
12204
12311
12377
12406
12316
12283
12273
12277
12282
12316
12339
12308
12237
12154
12118
11964
11887
11845
11808
11781
11736
11809
11896
11970
12015
12072
12109
12100
12132
12173
12192
12147
12115
12118
12146
12178
12209
12225
12202
12175
12152
12145
12160
12148
12140
12150
12183
12232
12277
12203
12085
11969
11984
12020
11959
11922
11922
11940
12009
12095
12221
12297
12324
12351
12285
12204
12074
11883
11687
11594
11692
11823
12009
12199
12318
12265
12268
12249
12168
12098
12093
12127
12150
12185
12208
12289
12366
12459
12497
12450
12386
12227
12137
12063
12040
12064
12077
12062
12026
11971
11896
11834
11760
11764
11787
11800
11846
12024
12117
12205
12309
12419
12515
12572
12545
12496
12434
12353
12183
12140
12149
12158
12147
11974
11893
11854
11880
11923
11961
12043
12078
12105
12122
12136
12252
12366
12446
12475
12440
12343
12093
12034
12036
12041
12039
12013
11953
11902
11892
11932
12121
12230
12279
12269
12189
12095
11988
11964
11917
11831
11784
11882
11928
11980
12028
12076
12123
12207
12253
12320
12359
12347
12233
12198
12182
12164
12156
12154
12089
12034
12039
12101
12184
12411
12503
12501
12443
12385
12293
12162
12005
11872
11734
11593
11358
11388
11515
11691
11866
12008
12044
12111
12191
12277
12404
12694
12802
12886
12931
12927
12701
12533
12414
12364
12344
12159
12007
11878
11786
11707
11692
11726
11784
11893
11981
12017
11955
11904
11880
11905
11964
12013
12022
12024
12049
12078
12092
12095
12107
12134
12153
12176
12268
12286
12287
12260
12184
12121
12085
12053
12028
11973
11932
11946
11980
12030
12072
12118
12140
12217
12255
12289
12297
12283
12242
12231
12219
12225
12258
12287
12162
12079
12047
12058
12105
12253
12283
12285
12239
12230
12240
12190
12134
12089
12047
11968
11824
11752
11661
11643
11723
11881
11905
11933
11978
12006
12019
12132
12189
12230
12285
12335
12450
12506
12563
12591
12580
12457
12401
12354
12329
12303
12269
12167
12157
12150
12128
12056
11930
11894
11844
11841
11864
11885
11853
11809
11778
11766
11772
11954
12079
12156
12176
12177
12196
12259
12319
12410
12492
12557
12574
12559
12528
12475
12377
12158
12074
11987
11892
11832
11812
11836
11867
11913
11944
11961
11982
11993
12003
12015
12043
12073
12183
12249
12294
12290
12231
12027
11942
11848
11810
11825
11981
12078
12188
12258
12299
12352
12413
12390
12348
12291
12218
12119
12094
12016
11948
11938
11957
11973
11973
11984
12003
11999
11997
12027
12045
12050
12070
12115
12212
12259
12295
12304
12291
12400
12491
12524
12485
12441
12396
12342
12244
12157
12097
12085
12046
11978
11920
11883
11880
11930
11954
11971
12004
12047
12089
12199
12161
12087
12003
11932
11817
11797
11831
11886
11941
12121
12232
12323
12380
12418
12452
12408
12341
12243
12158
12115
12051
12027
12015
11987
11980
11999
12047
12092
12112
12111
12118
12145
12091
12052
12023
12052
12218
12264
12298
12298
12244
12205
12148
12080
12045
12048
12041
12108
12126
12131
12123
12114
12103
12064
12073
12077
12056
12039
12015
11934
11851
11804
11765
11697
11646
11722
11872
12034
12168
12406
12512
12637
12757
12857
12817
12624
12403
12222
12120
12088
12072
12097
12144
12152
12169
12106
12039
11961
11894
11896
11938
11957
11976
12006
12054
12103
12201
12233
12306
12366
12427
12466
12434
12357
12266
12177
12061
11793
11666
11604
11583
11571
11725
11835
11898
11939
11923
11896
11917
11970
12045
12169
12355
12699
12784
12812
12803
12734
12546
12465
12390
12273
12140
12006
11891
11906
11933
11897
11810
11710
11700
11708
11704
11705
11743
11968
12124
12271
12417
12519
12589
12524
12427
12340
12290
12271
12213
12139
12072
11984
11877
11803
11826
11872
11958
12086
12227
12243
12215
12128
12007
11910
11824
11828
11882
11961
12044
12160
12217
12273
12285
12286
12281
12224
12217
12203
12148
12091
12051
12036
12047
12039
12020
12006
11973
11929
11905
11936
12000
12226
12325
12436
12507
12519
12549
12526
12419
12259
12106
12007
11897
11840
11852
11889
11947
12097
12140
12219
12294
12325
12310
12160
12148
12170
12158
12111
12005
11930
11875
11818
11807
11889
12009
12170
12349
12510
12656
12725
12672
12603
12508
12435
12269
12084
11871
11756
11758
11770
11808
11840
11886
11940
11993
12065
12094
12134
12125
12111
12041
12041
12084
12131
12198
12298
12322
12262
12186
12102
12039
11926
11925
11949
11992
12004
11992
11884
11831
11800
11785
11805
12015
12159
12291
12365
12392
12391
12298
12266
12227
12188
12176
12149
12143
12163
12211
12254
12340
12399
12438
12458
12414
12330
12073
11940
11806
11709
11681
11706
11676
11662
11657
11702
11830
12202
12358
12474
12518
12530
12431
12357
12312
12253
12194
12080
12076
12086
12049
11971
11913
12042
12137
12169
12160
12161
12362
12429
12415
12304
12140
11986
11827
11812
11866
11983
12125
12365
12411
12424
12448
12476
12436
12399
12352
12260
12100
11974
11959
11948
11935
11916
11896
11846
11759
11647
11592
11607
11659
11846
11942
12071
12201
12335
12536
12542
12510
12470
12478
12481
12345
12287
12277
12243
12162
11926
11847
11844
11861
11865
11745
11692
11787
11937
12051
12128
12312
12360
12362
12319
12186
11862
11731
11748
11856
11960
12061
12185
12191
12195
12232
12308
12441
12412
12369
12311
12269
12187
12174
12153
12157
12182
12182
12225
12317
12481
12644
12751
12793
12834
12858
12718
12408
12049
11516
11386
11317
11274
11305
11505
11601
11716
11850
11958
12030
12178
12270
12362
12422
12427
12365
12308
12214
12099
11985
11961
11978
11998
12003
11969
11955
11828
11777
11798
11843
11900
12056
12125
12197
12285
12339
12357
12355
12420
12485
12488
12493
12526
12513
12474
12431
12395
12282
12216
12048
11776
11580
11543
11633
11682
11759
11859
11917
11977
12014
12038
12034
12034
12037
11953
11866
11833
11899
12046
12277
12306
12293
12199
12098
12219
12250
12284
12400
12533
12592
12526
12448
12384
12333
12300
12238
12226
12190
12141
12048
11945
11792
11674
11596
11633
11736
11913
11884
11870
11924
12024
12088
12127
12108
12103
12074
11897
11759
11833
11977
12169
12348
12528
12588
12652
12696
12698
12680
12607
12654
12681
12716
12725
12679
12556
12299
12024
11889
11843
11861
11849
11805
11791
11786
11824
11861
11893
11871
11809
11790
11851
11852
11846
11844
11830
11760
11812
11940
12042
12096
12205
12175
12101
12083
12135
12180
12191
12193
12195
12147
12111
12175
12252
12291
12321
12390
12477
12579
12530
12444
12338
12257
12293
12393
12495
12561
12568
12408
12196
11983
11787
11560
11281
11099
11144
11226
11292
11377
11576
11639
11734
11931
12204
12457
12919
13133
13242
13219
13149
12996
12758
12434
12154
11954
11638
11631
11709
11810
11834
11787
11769
11789
11762
11680
11647
11763
11890
12050
12243
12462
12645
12796
12732
12661
12602
12542
12422
12356
12300
12301
12287
12212
12132
12061
11994
11903
11876
11890
11787
11657
11515
11433
11721
11884
12008
12131
12199
12174
12038
12020
12013
12044
12094
12198
12213
12272
12315
12296
12239
12124
12061
12019
12023
12080
12236
12321
12413
12437
12373
12261
12302
12343
12332
12300
12271
12198
12066
11941
11868
11816
11715
11672
11684
11751
11845
11921
12082
12100
12074
12028
11983
12081
12187
12305
12419
12502
12581
12625
12571
12414
12263
12170
12012
11974
11964
11943
11911
12010
12091
12175
12222
12259
12281
12350
12351
12333
12295
12267
12186
12138
12086
12002
11843
11679
11465
11512
11612
11742
11881
12121
12208
12256
12347
12463
12280
12084
11917
11837
11813
11768
11658
11634
11687
11848
12091
12614
12832
12961
12908
12773
12575
12396
12329
12253
12253
12272
12263
12233
12199
12137
12091
12063
12048
12071
12122
12149
12187
12211
12188
12128
12078
12027
12047
12118
12085
11966
11899
11887
11812
11781
11751
11739
11807
11985
12082
12173
12216
12198
12221
12296
12412
12493
12563
12689
12583
12340
12186
12044
11856
11547
11399
11171
10916
10814
10955
11510
11781
12031
12186
12349
12865
13020
13054
13008
12948
12874
12491
12343
12270
12303
12388
12528
12535
12530
12451
12290
12057
11916
11820
11823
11871
11915
11842
11782
11705
11657
11648
11755
11773
11805
11850
11919
12019
12272
12433
12583
12682
12767
12748
12685
12594
12456
12256
11958
11855
11776
11736
11720
11744
11783
11779
11773
11780
11787
11971
12075
12131
12213
12305
12345
12261
12176
12097
12019
11998
12126
12280
12489
12663
12671
12529
12122
11963
11812
11718
11655
11542
11509
11534
11583
11697
12137
12340
12499
12611
12690
12703
12606
12602
12602
12554
12496
12410
12373
12341
12278
12163
12031
11904
11888
11872
11856
11892
12051
12089
12080
12039
12004
12026
12021
11985
11924
11876
11779
11679
11676
11647
11587
11575
11746
11837
11926
12021
12107
12209
12474
12584
12691
12799
12863
12840
12666
12459
12249
12086
11867
11864
11975
12110
12153
12095
12070
12075
12096
12125
12193
12401
12395
12397
12368
12327
12293
12260
12258
12276
12244
12159
11956
11855
11730
11671
11661
11720
11956
11979
11932
11868
11762
11778
11988
12195
12306
12279
11905
11783
11834
11999
12146
12266
12317
12332
12357
12430
12544
12688
12633
12588
12555
12495
12392
12177
12033
11931
11787
11621
11554
11751
11913
11927
11876
12015
12115
12169
12178
12178
12156
12153
12073
11963
11904
11901
11930
11972
12001
12043
12042
11992
11897
11951
12045
12103
12137
12243
12343
12466
12536
12582
12595
12473
12423
12386
12329
12266
12113
12076
12049
12002
11947
11987
12059
12114
12104
12070
12070
12095
12118
12148
12205
12278
12374
12338
12259
12222
12237
12277
12234
12212
12216
12232
12221
12133
12005
11907
11830
11810
11921
12035
12103
12172
12211
12198
12094
12082
12056
11998
11863
11681
11665
11676
11694
11737
11776
11924
12033
12121
12123
12061
12124
12185
12172
12112
12158
12448
12507
12513
12494
12514
12512
12389
12467
12573
12653
12664
12516
12361
12185
12024
11939
11883
11744
11722
11742
11749
11765
11887
11929
11973
12027
12010
11960
11919
11964
12015
12043
12046
11965
11938
11934
11958
12016
12253
12364
12448
12542
12580
12588
12480
12344
12230
12150
12103
12088
12112
12079
12015
11970
11956
12101
12194
12233
12228
12251
12277
12275
12243
12199
12129
12031
11998
11982
12014
12085
12168
12362
12422
12474
12480
12394
12123
12017
11868
11832
11920
12023
12179
12229
12244
12195
12145
12090
12070
12008
11872
11663
11535
11411
11463
11576
11675
11754
11876
11846
11860
11943
12056
12200
12217
12248
12325
12416
12508
12688
12680
12654
12599
12547
12542
12458
12268
12000
11799
11692
11538
11341
11186
11247
11403
11742
11956
12172
12345
12422
12582
12621
12621
12652
12685
12709
12693
12759
12811
12846
12877
12764
12686
12643
12607
12555
12450
12119
11995
11885
11776
11656
11428
11352
11276
11208
11139
11141
11145
11214
11353
11503
11612
11853
12032
12188
12320
12467
12695
12713
12673
12598
12543
12488
12589
12707
12757
12741
12582
12174
11959
11743
11637
11670
11789
12145
12277
12335
12414
12504
12476
12318
12107
11947
11834
11685
11706
11689
11620
11554
11504
11435
11422
11442
11542
11655
11863
11939
12011
12129
12287
12442
12642
12787
12963
13049
13030
13131
13310
13434
13403
13296
13081
12978
12806
12606
12372
12106
11438
11004
10687
10453
10277
10166
10325
10521
10693
10875
11038
11585
11926
12240
12482
12636
12895
13105
13331
13467
13570
13644
13733
13661
13508
13284
13052
12582
12295
12036
11778
11510
10988
10873
10886
10975
11045
11191
11619
11693
11674
11663
11760
12025
12171
12344
12488
12560
12565
12416
12388
12441
12492
12459
12364
12313
12212
12160
12152
11953
11749
11582
11468
11462
11559
11639
11639
11645
11683
11828
12202
12408
12616
12773
12858
12879
12763
12708
12658
12590
12492
12269
12229
12209
12180
12181
12180
12211
12287
12395
12477
12498
12362
12222
12138
12075
11986
11945
11935
11936
12009
12058
11994
11745
11683
11700
11744
11779
11700
11567
11406
11235
11077
11135
11480
11652
11823
11964
12115
12474
12492
12445
12367
12322
12338
12347
12345
12318
12307
12293
12250
12255
12281
12285
12292
12307
12408
12494
12546
12532
12486
12341
12280
12241
12272
12389
12821
13107
13363
13485
13504
13270
13060
12765
12418
12063
11674
10878
10524
10196
9950
9823
9807
9970
10232
10386
10690
11037
11434
11856
12237
12736
12859
12891
12829
12757
12725
12892
12952
13003
13040
13039
13138
13166
13121
13040
12930
12843
12603
12419
12231
12024
11771
11379
11309
11320
11369
11427
11484
11543
11680
11847
12051
12252
12315
12263
12239
12223
12225
12253
12285
12311
12308
12357
12511
12837
12895
12870
12802
12721
12524
12395
12252
12152
12088
11934
11440
11162
10879
10667
10553
10838
11166
11534
11956
12417
13151
13342
13427
13453
13414
13404
13286
13048
12716
12223
11610
10361
9880
9689
9722
9858
10057
10371
10735
11071
11739
12128
12478
12740
12904
12985
13044
13048
13049
13037
13092
13402
13623
13781
13809
13721
13524
13380
13146
12867
12614
12336
11609
11146
10696
10423
10381
10612
10939
11520
12362
13060
13402
13482
13472
13386
13179
12852
11920
11365
10867
10356
9770
9216
8997
9100
9370
9794
10502
11962
12444
12833
13203
13472
13342
13080
12865
12761
12613
12394
12053
11944
11883
11867
11946
12287
12538
12812
12971
12994
13005
13112
13037
12878
12674
12467
11933
11568
11286
11204
11394
11726
11911
11787
11720
11779
11848
12005
12044
11995
11907
11834
11863
11861
11865
11876
11877
11939
12236
12360
12484
12597
12707
12824
12940
13178
13634
14143
14507
14875
14786
14573
14275
13944
12956
12160
11207
10217
9300
8557
7981
7632
7573
7805
8391
9039
9661
10323
11477
12055
12555
12882
12996
13010
13029
12988
12889
12831
12768
12835
13000
13151
13305
13499
13788
13773
13645
13452
13194
12943
12811
12611
12371
12043
11605
11163
10985
10715
10540
10701
11407
11675
11964
12124
12221
12282
11955
11769
11703
11763
11914
12454
12527
12520
12429
12176
11784
12049
12696
13299
13647
13799
13693
13491
13174
12772
12377
11732
11474
11143
10637
10037
9464
9358
9778
11106
11554
11735
11874
12063
12370
12915
12986
12913
12629
12114
11146
10899
10905
11092
11302
11492
11818
12017
12204
12350
12489
12756
13010
13186
13290
13455
13578
13442
13232
12986
12838
12774
12164
12092
12166
12263
12428
13711
14631
15155
15171
14800
14204
12377
11521
10814
10183
9784
9343
8736
8151
8142
8805
9672
10248
10465
10748
11600
12914
14191
14929
14554
14095
13721
13440
12526
11962
11474
10953
10592
10505
10449
10385
10433
10494
10576
11399
12034
12572
12868
13010
13314
13445
13325
13223
13166
13046
12781
13141
13659
14143
14642
15016
14885
14500
13839
12918
12055
11160
10474
9566
8564
7741
7505
7720
8216
9065
10001
10812
11423
12276
12604
12827
12922
13049
13637
13723
13686
13528
13329
13486
14857
14975
14542
13840
13168
11905
11381
10978
10627
10127
8677
8009
8056
8812
9796
10785
11660
12377
13117
13867
15079
15269
15440
15430
15270
14726
14166
13846
13186
12652
12732
12149
11831
11546
11144
10688
10269
9837
9442
9025
8783
8608
8475
8399
8976
10057
10721
11154
11790
13797
14457
14606
14514
14332
13944
12949
12437
11777
11291
11290
12314
13157
13879
14159
13946
13596
13007
12928
12801
12438
12061
11278
11558
11977
12319
12447
12468
11959
11314
10988
10853
10700
10879
11030
11501
12395
12956
12662
12609
12936
13500
13998
14194
13147
12191
11175
10230
9500
9159
9456
10316
10844
10622
10810
11386
12488
15130
16066
16417
16229
15692
14898
13451
13125
12812
11891
10511
8566
8269
8707
9440
10213
11202
11946
12017
11666
10951
10678
10370
10278
10666
11272
11480
11184
10907
10846
11350
12853
13202
13474
13841
14144
14237
14159
14022
13946
13990
14280
15049
15233
15214
14816
14175
13137
12714
12180
11451
10777
10697
11366
12094
13285
14039
14317
14035
13557
12718
11638
10392
6702
5005
3745
3172
3298
4147
6135
8593
10663
12119
13257
14093
14529
14530
14436
14316
13946
13471
13261
13552
13869
14123
14052
13834
13037
13040
13373
13764
13997
13640
13155
12743
12469
12315
12058
12213
12379
12543
12587
12398
11712
11718
11618
11328
11111
10896
9702
9225
8983
9110
9506
9980
10427
10867
11351
11923
12631
13465
13518
13705
14172
14530
14305
13901
13513
13196
12992
13161
13071
12826
12424
12035
11819
12944
13775
14071
13906
13456
12414
11881
11454
11087
10684
10035
8624
7896
7164
7184
8333
9919
11205
12070
12883
13611
14015
14096
14046
13969
13812
13490
12803
12412
12112
11963
11925
12283
12629
12923
13068
13108
12997
12216
11752
11442
11376
11520
11502
11237
11045
10995
10993
10989
11027
11454
12032
12460
12675
12805
12903
13165
13306
13275
13503
13593
13938
14395
14474
14172
13183
12539
11955
11525
11144
9993
9313
8873
8701
8864
9428
10046
10746
11626
12446
13049
13907
14005
13932
13693
13325
12934
11933
11554
11441
11420
11541
11792
11690
11641
11746
11915
12126
12169
12177
12060
11800
11517
11531
11726
11949
12228
12413
12442
12490
12518
12449
12293
12053
12090
12247
12399
12525
12530
12331
12222
12191
12258
12329
12373
12416
12474
12454
12497
12642
12742
12688
12594
12463
12370
12106
11896
11731
11683
11745
11763
11701
11716
11723
11779
11902
12237
12361
12438
12582
12795
12946
12875
12711
12504
12233
11940
11148
10800
10711
10784
10921
10987
11048
11203
11411
11645
11881
12471
12676
12826
12896
12866
12657
12584
12566
12557
12505
12396
12227
12220
12177
12110
12062
12161
12276
12303
12212
12107
11658
11457
11580
11943
12317
12557
12747
12780
12782
12743
12693
12648
12704
12656
12717
12891
12931
12630
12454
12359
12235
12037
11190
10654
10150
9714
9468
9471
9728
10127
10648
11815
12221
12585
12906
13214
13396
13332
13222
13165
13128
13040
12867
12789
12720
12650
12573
12142
11984
11962
12022
12108
12119
11825
11498
11184
11097
11324
11948
12083
12132
12127
12122
12147
12448
12518
12473
12357
12265
11968
11667
11528
11557
11694
11866
12075
12075
12114
12196
12326
12448
12443
12452
12549
12699
12736
12644
12499
12337
12185
12092
12080
12071
12028
11909
11749
11653
11690
11726
11848
12060
12270
12524
12559
12527
12497
12435
12125
11944
11841
11822
11802
11704
11692
11759
11879
11941
12026
12521
12828
13012
13057
13029
12779
12632
12432
12162
11924
11773
11515
11507
11611
11708
11684
11725
11882
12089
12207
12235
12229
12092
11807
11468
11188
11155
11584
11777
11920
12034
12126
12479
12563
12549
12475
12420
12378
12380
12471
12646
12902
12956
12491
12234
12075
12042
12035
11977
11866
11812
11794
11747
11693
11735
11721
11784
11952
12128
12415
12455
12484
12486
12442
12340
12413
12480
12483
12420
12376
12419
12408
12324
12195
12019
11793
11529
11452
11416
11423
11380
11441
11647
11861
11984
12068
12281
12355
12413
12488
12572
12605
12590
12531
12421
12323
12253
12005
11921
11934
12000
12017
11984
11969
12026
12096
12169
12257
12345
12341
12327
12283
12191
12092
11935
11915
11944
12001
12031
11918
11971
12066
12096
12130
12227
12275
12322
12354
12347
12314
12177
12127
12121
12164
12291
12550
12493
12390
12301
12215
12180
12174
12174
12135
12031
11898
11697
11629
11619
11623
11679
11856
12031
12232
12390
12486
12497
12335
12217
12100
12002
11880
11582
11438
11304
11202
11156
11238
11526
11696
11871
12107
12373
12696
12745
12743
12702
12685
12765
12841
12908
12928
12922
12892
12709
12587
12471
12350
12235
12064
11976
11862
11679
11538
11489
11558
11631
11677
11704
11729
11765
11794
11860
11913
11945
11978
12024
12065
12110
12150
12223
12249
12261
12316
12359
12372
12322
12285
12271
12305
12360
12397
12355
12337
12337
12357
12371
12265
12206
12150
12075
11967
11863
11647
11538
11551
11689
11857
12162
12244
12272
12267
12267
12239
12212
12213
12199
12141
12067
11968
11978
12073
12217
12334
12430
12380
12262
12123
12025
11997
11928
11868
11836
11836
11827
11819
11812
11808
11783
11751
11782
11960
12062
12237
12504
12761
13005
13024
13007
12916
12773
12363
12125
11889
11670
11475
11333
11137
11119
11183
11246
11317
11560
11696
11866
12084
12289
12413
12521
12539
12558
12580
12637
12711
12699
12702
12790
12952
13152
13189
13169
13066
12904
12734
12388
12214
12071
11902
11695
11218
11051
10931
10921
11008
11093
11314
11431
11621
11795
11900
11932
11871
11864
11913
12041
12393
12562
12670
12671
12631
12634
12708
12713
12720
12713
12651
12379
12183
11995
11863
11773
11753
11758
11771
11779
11722
11673
11823
11985
12143
12272
12383
12476
12518
12582
12670
12689
12651
12514
12405
12289
12155
12035
11809
11707
11613
11539
11480
11470
11639
11784
11949
12081
12156
12169
12161
12156
12145
12102
12061
12013
11974
11926
11870
11865
11966
12048
12127
12173
12195
12223
12256
12303
12338
12349
12380
12466
12477
12479
12464
12443
12407
12350
12282
12240
12194
12158
12026
11943
11905
11889
11870
11821
11772
11794
11892
11987
12028
11870
11753
11699
11680
11724
11936
12081
12233
12356
12450
12550
12575
12568
12568
12561
12531
12425
12379
12365
12386
12398
12290
12212
12115
12055
11996
11938
11833
11891
11999
12052
12020
11955
11892
11870
11926
12029
12185
12253
12297
12229
12072
11890
11626
11600
11684
11786
11827
11717
11700
11735
11805
11922
12064
12365
12457
12497
12534
12571
12618
12613
12592
12566
12530
12439
12383
12314
12233
12156
12069
11894
11834
11763
11718
11727
11782
11806
11833
11896
11974
12027
12178
12237
12278
12312
12330
12310
12273
12257
12260
12267
12275
12221
12178
12137
12108
12105
12084
12080
12119
12181
12218
12222
12182
12122
12086
12084
12088
12042
11981
11919
11874
11850
11940
12033
12116
12203
12284
12312
12418
12511
12569
12621
12703
12788
12707
12555
12360
12134
11744
11534
11314
11192
11126
11149
11519
11651
11747
11848
11922
12089
12176
12163
12081
12078
12148
12195
12166
12155
12152
12187
12326
12363
12392
12428
12456
12429
12281
12208
12166
12138
12124
12217
12279
12312
12302
12256
12154
12091
12033
12006
12006
12024
12098
12159
12227
12262
12254
12216
12210
12224
12257
12280
12289
12255
12225
12156
12065
11966
11870
11879
11888
11899
11915
11928
11908
11939
12023
12086
12107
12093
12107
12144
12148
12124
12110
12131
12129
12110
12118
12161
12198
12187
12177
12150
12118
12156
12189
12225
12227
12199
12208
12242
12259
12264
12271
12292
12273
12227
12221
12229
12235
12227
12211
12172
12130
12090
12023
11805
11647
11557
11490
11453
11600
11769
11938
12037
12101
12143
12262
12321
12363
12402
12418
12389
12358
12354
12373
12401
12323
12253
12168
12065
11948
11836
11754
11747
11735
11747
11756
11768
11821
11912
12041
12140
12217
12314
12345
12357
12365
12361
12303
12292
12267
12235
12199
12225
12268
12322
12391
12454
12484
12523
12529
12464
12356
12244
12058
11988
11927
11881
11863
11888
11978
12042
12138
12222
12298
12242
12144
12034
11951
11911
11907
11831
11715
11612
11586
11661
11996
12170
12273
12316
12311
12326
12373
12379
12300
12216
12173
12138
12144
12137
12100
12088
12199
12260
12319
12380
12419
12422
12306
12252
12193
12135
12083
11863
11711
11595
11557
11623
11867
12029
12135
12146
12100
12069
12193
12270
12219
12084
11982
12078
12164
12209
12209
12196
12190
12183
12180
12177
12200
12199
12191
12212
12226
12249
12296
12290
12229
12128
12048
12011
11950
11930
12033
12126
12159
12127
12122
12185
12236
12221
12169
12156
12250
12291
12322
12309
12230
12142
12117
12098
12084
12078
12074
12037
12041
12025
11976
11938
11959
11971
11966
11991
12024
12089
12060
12021
11975
11942
11918
11962
12027
12071
12106
12122
12143
12159
12190
12236
12258
12263
12186
12168
12159
12170
12168
12225
12268
12284
12284
12315
12452
12504
12501
12472
12431
12340
12137
12064
12020
11995
11970
11860
11813
11801
11819
11865
11945
12102
12133
12115
12072
12044
12071
12111
12155
12213
12243
12207
12089
12055
12052
12060
12054
12022
12016
12045
12082
12095
12061
12071
12110
12132
12096
12041
12062
12080
12062
12004
11960
12103
12224
12306
12414
12582
12729
12687
12567
12456
12356
12244
12014
11976
11938
11901
11896
11895
11841
11738
11634
11632
11670
11757
11908
12050
12151
12262
12465
12515
12519
12513
12471
12416
12292
12274
12258
12212
12162
12092
12049
11987
11914
11862
11899
11928
11959
11998
12065
12165
12271
12250
12212
12202
12206
12139
12034
12002
12024
12060
12045
11999
12017
12038
12050
12057
12093
12135
12179
12224
12241
12226
12147
12089
12065
12051
12046
12057
12062
12088
12151
12164
12130
12157
12220
12276
12258
12173
12172
12188
12185
12131
12022
11828
11808
11821
11836
11858
11912
12066
12127
12204
12257
12300
12417
12439
12473
12494
12487
12346
12243
12164
12111
12057
12003
11936
11907
11879
11865
11908
12050
12119
12162
12190
12206
12209
12169
12180
12227
12245
12206
12088
12024
11963
11908
11898
11930
12046
12112
12181
12226
12244
12274
12289
12327
12378
12442
12479
12436
12379
12339
12319
12276
12102
11982
11859
11742
11674
11563
11552
11611
11733
11911
12106
12459
12578
12630
12561
12368
12047
11933
11866
11840
11849
11949
11953
11949
11949
11957
11976
12095
12188
12256
12280
12291
12346
12355
12345
12356
12359
12320
12180
12145
12116
12089
11995
11725
11690
11667
11672
11656
11646
11707
11745
11834
11956
12090
12427
12644
12852
13013
13116
13156
13145
13046
12870
12672
12489
12164
12034
11891
11754
11683
11667
11642
11661
11688
11695
11657
11594
11652
11702
11701
11699
11741
11808
11912
12020
12135
12326
12394
12453
12528
12636
12740
12752
12709
12667
12568
12434
12251
12161
12027
11908
11817
11764
11720
11689
11684
11723
11785
11933
11962
11926
11856
11838
11821
11821
11873
11946
11992
12046
12201
12256
12324
12398
12496
12639
12673
12717
12733
12722
12692
12532
12423
12302
12190
12087
11949
11852
11769
11718
11724
11787
11930
12021
12109
12177
12239
12116
11889
11667
11492
11399
11442
11505
11580
11657
11749
11877
12235
12396
12574
12778
12949
13118
13102
13079
13032
12912
12759
12514
12334
12160
12006
11888
11740
11720
11703
11676
11668
11774
11830
11851
11838
11777
11719
11675
11706
11763
11823
11902
12045
12098
12141
12178
12224
12287
12426
12459
12495
12530
12551
12548
12535
12481
12407
12323
12087
11934
11800
11714
11635
11620
11793
11859
11962
12039
12059
12114
12163
12231
12306
12338
12336
12340
12312
12309
12326
12282
12137
12056
11935
11845
11824
11811
11829
11866
11890
11950
12085
12426
12530
12584
12630
12682
12578
12466
12332
12191
12101
12055
11874
11757
11653
11578
11560
11646
11715
11753
11784
11828
11901
12137
12222
12274
12339
12431
12600
12641
12654
12625
12593
12482
12426
12379
12327
12250
12191
12125
12073
11964
11880
11858
11902
11884
11799
11706
11665
11718
11914
12006
12083
12147
12179
12193
12189
12186
12172
12162
12153
12155
12139
12130
12139
12168
12168
12133
12070
11992
11935
11924
11962
11961
11889
11802
11746
11729
11748
11836
11971
12103
12381
12513
12626
12730
12821
12900
12995
12963
12858
12694
12512
12161
11971
11793
11672
11625
11529
11520
11575
11682
11808
11932
12091
12152
12233
12299
12336
12359
12355
12324
12286
12263
12235
11993
11897
11831
11797
11824
11945
12009
12088
12174
12235
12247
12182
12128
12080
12059
12043
12089
12109
12106
12092
12070
12068
12114
12130
12094
11974
11897
11966
12051
12121
12141
12147
12223
12284
12311
12309
12316
12310
12232
12215
12180
12134
12108
12136
12189
12224
12247
12257
12291
12314
12319
12299
12284
12322
12416
12439
12381
12199
11951
11513
11295
11095
10969
10905
10944
11417
11725
12087
12425
12712
13084
13209
13313
13349
13344
13224
13109
12985
12816
12562
12214
11709
11531
11399
11291
11262
11439
11520
11608
11653
11664
11666
11665
11674
11714
11782
11878
12103
12189
12297
12408
12478
12503
12518
12530
12519
12474
12427
12344
12263
12159
12055
11987
11936
11952
11940
11876
11814
11816
11937
12009
12084
12144
12157
12112
12084
12040
11984
11972
12025
12240
12328
12383
12422
12464
12517
12485
12443
12390
12331
12244
12203
12169
12168
12165
12106
11952
11899
11813
11613
11395
11180
11148
11195
11323
11482
11636
12037
12252
12484
12751
12997
13344
13425
13465
13482
13449
13246
13067
12853
12599
12322
12030
11441
11185
11034
11026
11098
11303
11407
11464
11483
11477
11457
11542
11705
11843
11928
11986
12183
12282
12398
12521
12584
12573
12566
12637
12704
12689
12612
12335
12211
12070
11959
11933
11956
11987
12045
12109
12136
12144
12191
12177
12122
12033
11957
11765
11714
11707
11718
11781
11854
12108
12253
12394
12518
12599
12630
12601
12527
12446
12357
12313
12345
12371
12343
12266
12193
12115
12123
12101
12018
11921
11783
11744
11729
11739
11740
11765
11813
11790
11784
11814
11870
11961
12000
12057
12159
12302
12415
12583
12618
12566
12485
12403
12166
12057
11962
11851
11760
11768
11856
11988
12112
12189
12223
12161
12113
12040
11954
11912
11901
11898
11914
11948
11995
12067
12073
12028
12009
12013
12061
12327
12520
12709
12852
12933
12769
12598
12482
12421
12368
12334
12279
12205
12077
11939
11871
12002
12127
12275
12442
12589
12681
12520
12381
12261
12129
11983
11688
11531
11421
11321
11276
11354
11581
11684
11771
11837
11923
12218
12317
12350
12360
12345
12131
12047
11979
11907
11864
11891
12068
12141
12191
12256
12343
12523
12573
12612
12653
12685
12638
12380
12285
12197
12118
12057
11920
11798
11677
11612
11617
11724
11759
11794
11824
11870
11898
11913
11978
12043
12096
12170
12391
12483
12551
12563
12498
12400
12300
12301
12328
12357
12383
12490
12483
12427
12347
12294
12236
12186
12145
12060
11924
11772
11579
11596
11688
11780
11863
12084
12115
12085
12063
12051
12022
11935
11935
11961
11997
12091
12331
12442
12527
12605
12649
12678
12648
12618
12542
12448
12352
12047
11915
11820
11712
11595
11345
11377
11530
11699
11817
11895
12050
12153
12245
12330
12403
12542
12581
12603
12606
12595
12571
12542
12444
12204
11861
11492
11014
11002
11129
11331
11583
12059
12226
12355
12461
12539
12615
12553
12499
12430
12374
12359
12345
12256
12185
12146
12090
12001
11951
12025
12085
12072
11998
12016
12071
12103
12108
12104
12119
12279
12341
12385
12386
12345
12199
12134
12116
12148
12193
12260
12250
12203
12098
11977
11855
11698
11720
11794
11902
12017
12163
12169
12073
11926
11852
11882
12038
12128
12212
12242
12275
12477
12547
12512
12403
12307
12240
12248
12237
12176
12095
12062
12055
11995
11938
11924
11971
12053
12019
11976
11934
11903
11899
12052
12064
12060
12079
12149
12215
12199
12200
12244
12256
12326
12399
12455
12487
12465
12398
12164
11962
11776
11708
11731
11686
11714
11797
11925
12077
12224
12491
12576
12620
12631
12613
12374
12224
12122
12039
11985
11980
11965
11923
11815
11702
11654
11779
11876
11928
11971
12047
12146
12124
12084
12105
12183
12287
12295
12237
12200
12190
12198
12163
12152
12150
12156
12161
12182
12264
12310
12317
12280
12244
12298
12287
12214
12185
12224
12241
12171
12077
11983
11915
11904
12001
12013
11986
11990
11944
11655
11480
11377
11350
11401
11514
11827
12057
12210
12274
12355
12507
12518
12484
12507
12538
12556
12554
12561
12634
12712
12756
12758
12728
12660
12568
12447
12210
12158
12026
11842
11661
11544
11493
11488
11442
11424
11509
11759
11948
12127
12262
12320
12308
12287
12283
12283
12314
12349
12238
12143
12064
12005
11969
11932
11926
11941
11957
11995
12037
12159
12179
12183
12205
12230
12197
12146
12115
12112
12125
12131
12217
12228
12203
12197
12255
12358
12372
12318
12200
12054
11754
11648
11559
11527
11537
11607
11945
12112
12199
12278
12448
12666
12535
12291
12059
11923
11903
11960
11889
11768
11672
11654
11867
11973
12064
12203
12406
12610
12855
12921
12970
12979
12939
12754
12639
12512
12386
12234
11902
11808
11799
11801
11800
11779
11728
11720
11817
11970
12108
12159
12164
12169
12143
12107
12109
12116
12073
12028
11978
11938
11930
11955
12015
12062
12070
12105
12140
12137
12074
11978
11873
11800
11829
11890
11949
12002
12142
12227
12339
12440
12533
12620
12608
12498
12408
12341
12296
12074
11944
11855
11798
11751
11710
11609
11638
11699
11755
11833
11920
11977
12028
12084
12174
12356
12510
12686
12800
12817
12779
12611
12537
12441
12274
12094
11942
11942
11926
11920
11900
11895
11908
11940
11962
12041
12179
12394
12376
12354
12380
12397
12270
12168
12094
12089
12149
12233
12134
11960
11830
11794
11836
11981
12025
12023
12005
11982
11959
12014
12074
12118
12125
12129
12168
12209
12263
12315
12312
12109
11919
11769
11694
11652
11618
11709
11833
11989
12167
12296
12554
12662
12730
12794
12818
12767
12513
12361
12174
12012
11893
11685
11621
11560
11502
11534
11636
12007
12193
12313
12396
12380
12292
12281
12285
12324
12414
12517
12465
12364
12261
12171
12095
11987
11964
12003
12038
12049
12195
12336
12406
12391
12351
12266
12098
12022
11914
11826
11765
11780
11850
11914
11980
12034
12087
12126
12188
12201
12168
12104
11985
11959
11969
11977
11967
11973
12014
12061
12045
12045
12097
12207
12191
12157
12110
12068
11990
11990
12016
12038
12088
12136
12233
12305
12306
12222
12121
12002
11966
11997
12060
12157
12412
12479
12463
12397
12340
12350
12365
12325
12254
12230
12247
12237
12225
12204
12186
12173
12143
12322
12392
12306
12119
11990
12006
11975
11910
11787
11718
11796
11866
11941
12002
12069
12141
12225
12275
12316
12308
12262
12176
12139
12033
11947
11905
11950
12182
12169
12098
12057
12066
12190
12250
12289
12267
12190
11995
11970
11965
11952
11948
12015
12125
12146
12163
12163
12129
11981
11928
11877
11853
11826
11869
12144
12193
12217
12238
12261
12149
12132
12143
12186
12252
12351
12450
12428
12424
12418
12344
11995
11914
11908
11864
11798
11728
11832
11999
12189
12275
12335
12510
12526
12510
12411
12289
12006
11948
11926
11936
11937
11951
12068
12146
12238
12328
12396
12437
12363
12231
12023
11847
11721
11697
11714
11837
12011
12151
12265
12243
12181
12115
12062
11963
11928
11873
11839
11858
11930
12136
12163
12119
12098
12106
12102
12203
12345
12449
12493
12581
12849
12936
12928
12843
12768
12579
12499
12433
12365
12293
12024
11736
11444
11226
11118
11173
11381
11326
11224
11258
11396
11631
11655
11717
11781
11827
11868
12050
12132
12247
12370
12499
12539
12536
12528
12529
12571
12483
12401
12372
12427
12511
12556
12478
12341
12205
12105
12022
11943
11998
12052
12101
12173
12269
12402
12403
12396
12366
12297
12209
12223
12220
12193
12146
12113
12056
12013
11952
11912
11857
11882
11925
11923
11846
11709
11443
11403
11458
11558
11694
11799
11884
11931
12069
12267
12461
12703
12755
12806
12860
12916
12985
13023
12948
12835
12679
12477
12079
11854
11763
11751
11758
11706
11659
11645
11590
11475
11397
11423
11545
11607
11581
11534
11587
11704
11902
12095
12272
12607
13423
13569
13602
13627
13622
13423
13212
12934
12639
12305
11581
11257
10955
10676
10423
10215
10385
10581
10770
10888
10966
11324
11612
11883
12136
12424
12705
13102
13305
13486
13572
13541
13251
12996
12756
12546
12325
12156
12066
12043
11992
11940
11906
11866
11898
11898
11810
11736
11661
11627
11659
11749
11859
12022
12415
12575
12612
12633
12646
12579
12515
12454
12464
12526
12546
12441
12394
12307
12211
12169
12142
12090
11999
11886
11740
11415
11327
11284
11328
11498
11717
12109
12261
12369
12439
12462
12500
12527
12464
12346
12272
12197
12095
11987
11838
11755
11749
11921
11975
11968
11949
11987
12214
12300
12299
12199
12057
11933
11646
11506
11453
11425
11380
11398
11403
11463
11576
11784
12106
12676
12903
13219
13514
13630
13574
13505
13385
13254
13115
12950
12481
12198
11980
11843
11740
11288
11120
11191
11347
11452
11510
11457
11411
11366
11282
11181
11298
11521
11745
11975
12219
12529
12503
12442
12425
12497
12596
12855
13023
13160
13206
13125
12777
12508
12216
11917
11731
11598
11581
11525
11431
11300
11198
11092
11135
11325
11611
11858
11974
11988
12085
12198
12281
12380
12485
12566
12675
12778
12835
12757
12646
12576
12584
12610
12638
12569
12461
12403
12397
12369
12280
12253
12257
12240
12176
12053
12021
12024
12069
12154
12323
12510
12447
12363
12339
12395
12729
12891
12963
12938
12808
12597
12037
11642
11227
10881
10671
10540
10582
10675
10678
10616
10733
10850
10928
10980
11047
11054
11263
11569
11863
12133
12343
12623
12767
12921
13023
13066
13126
13268
13391
13617
13815
13925
14083
14126
14172
14176
14027
13696
12820
12384
11850
11228
10588
9729
9646
9709
9750
9759
9827
10028
10420
10941
11521
11986
12629
12881
13066
13177
13226
13367
13516
13569
13511
13493
13478
13395
13351
13295
13166
12927
12296
11872
11395
10907
10445
10138
9982
10033
10253
10639
11127
11642
12788
13097
13167
13154
13122
12907
12720
12443
12361
12867
13315
13212
13031
12896
12977
13121
13061
12873
12316
11680
11239
10718
10708
10651
10564
10660
10957
11269
11726
12254
12167
11643
10682
10421
10380
10666
11014
11173
11867
12163
12383
12329
11840
10913
10725
10665
10535
10521
11053
12599
12874
12716
12394
12196
12474
12619
12504
12513
12820
13494
13612
13713
13849
13970
14310
15148
15031
14575
13921
13305
12432
12117
11938
11660
11253
10736
9050
8270
7718
7556
7803
8323
9152
10107
11060
12069
12998
14229
14633
15008
15317
15574
15913
16204
15862
15366
14699
13884
12324
11650
11053
10587
10197
9943
9990
10370
10604
10911
11174
11297
11567
12135
12247
12299
12197
11936
11092
10703
10452
10397
10565
10910
12954
14092
14762
15030
15170
15220
14858
14406
14113
13970
13707
12860
12472
11878
11196
10586
9426
9239
9218
9360
9597
9591
9153
8446
7744
7339
7591
8429
9764
11195
12286
13105
13688
14280
14418
14396
14406
14808
15296
15348
14887
14504
14231
13901
13545
13787
13795
13536
12955
11996
9735
9160
9190
9696
10134
10304
10697
11324
11982
12223
12291
12681
13438
14405
15407
15401
14970
14364
13691
12225
11333
10182
9107
8275
7934
8075
8494
9092
9823
10915
12538
14819
15277
15198
14758
14171
13596
12073
11363
10694
10045
9612
9238
8732
8562
8714
9106
9745
10382
11962
12642
13125
13209
13595
14839
14834
14392
13697
13106
11810
10861
10031
9669
10110
10953
11563
12381
12904
13368
13903
14620
16894
17879
17800
16885
15600
14467
13165
12896
13176
13338
12458
9312
8310
7497
6826
6994
7795
8337
8403
8245
8017
8114
8498
9193
10728
12466
13809
14448
14411
14179
13749
13124
12330
11430
9790
9750
10092
10716
12295
15388
18005
18710
18528
18383
17768
16614
13850
12278
10055
7209
4504
2807
2733
3760
5605
8077
10433
12134
14868
15814
16563
16969
16909
16546
15622
14664
13097
11538
10830
11487
12167
12102
11456
10709
10464
10781
11049
10689
9834
9135
8892
9202
10330
11898
15377
16380
16993
16724
15669
12788
11373
10001
8558
7208
6423
6160
6226
6508
7363
8925
10956
13059
15120
15540
15985
16378
16990
19027
19374
19288
18795
17881
16726
14153
12967
11747
10402
8909
7846
7734
7898
7863
7752
8937
9686
9837
9697
9792
9809
9195
7944
7042
7228
8334
9430
10424
11669
12750
13456
14028
14579
14744
15296
15757
15836
16148
17654
19068
19714
19527
18630
16107
14583
12641
10006
7096
4542
2303
235
7527
12041
3087
5265
8867
12047
14563
16268
17191
17689
18108
17954
16883
15480
14175
12803
9572
8436
7826
7725
8125
8892
9372
9693
10337
11299
12573
13791
15062
17794
18511
18860
18438
17561
16034
14446
12641
10217
7130
3687
1263
323
645
2271
4797
7373
9459
10954
12323
13821
16319
16953
17062
16675
15938
15567
15278
14669
14152
13770
13401
11899
10668
9804
9269
9036
8977
8937
9503
11609
15565
19096
21195
20643
19479
17973
16130
11203
8183
4852
1307
190
11576
10173
2152
2445
5828
8866
10714
11848
12810
14570
15337
16055
16445
16581
16583
16375
15477
13778
11990
11602
13632
15932
16803
16783
16684
14782
13015
10936
8624
6299
4391
2213
132
8
44
44
2660
6669
9470
10957
11877
12611
14355
15484
16454
17110
17525
17570
16824
16609
16445
15840
14595
12044
11165
11066
11995
13239
14365
13875
13108
12316
11370
10562
11054
10791
10588
10901
11381
12861
13544
13891
13971
12948
11302
10020
10464
11820
13416
14498
12876
11384
10396
10355
10567
10670
10422
10403
10248
10150
10117
10692
10794
10761
10735
10269
8666
9250
10120
10499
10554
10822
11524
13051
18233
20590
21934
21974
20993
17694
15992
13931
11348
8264
4895
2016
259
9
50
50
1856
5063
8177
10769
12877
14422
15516
15591
15752
16224
17026
17462
16997
16235
15239
14685
15532
16208
16337
15783
14546
13104
11252
10619
9838
9283
9336
9443
9670
10743
12291
13495
14286
13916
13516
13150
13051
12248
11744
10930
9854
8984
9025
9780
10450
10673
8585
6776
5926
6750
7894
8675
9382
10365
11567
12841
13696
13931
14415
14354
13787
13267
13047
13326
14507
14913
14717
14043
13338
12426
12581
13229
13330
12726
12127
12349
12450
12140
11951
11942
11205
10338
9580
9324
9710
11054
12912
14563
15883
15609
15115
14530
13490
11185
10271
9501
8942
8775
8456
8491
9423
10611
11145
10796
10512
11095
11866
12579
13030
13464
13777
13805
14026
14496
15862
18995
18977
18454
17670
16725
14255
12843
11097
9099
6929
4750
3008
1978
1931
3238
5896
8366
10250
11767
13060
13324
13517
13668
14132
14794
14914
14944
15015
14767
14241
13316
12767
11948
11198
10805
10295
10084
10479
11470
12276
12737
13360
13532
13885
14359
14791
15002
14344
13394
12875
12721
12312
10638
10294
10005
9435
9227
9608
10285
11078
12596
13051
13230
13176
12743
11251
10854
10829
11236
11408
11138
11333
12027
12535
12814
12724
11583
10922
10209
9508
9308
9945
10904
11558
12166
12565
13042
13458
13658
13703
13589
13502
13397
13339
13366
13272
13138
13011
12926
12902
13357
13761
13812
13750
13878
14062
13958
13868
14066
14135
13618
11810
11246
10560
9544
8506
7960
7689
7164
6545
6414
6960
7948
9239
10680
11989
13409
13618
13762
14065
14542
15390
16018
17120
17687
17337
16553
15029
13972
12805
11457
10011
6295
4364
3460
3967
5882
8297
10395
11718
12510
13068
13445
13754
13809
13609
13413
13492
13903
13898
13745
13518
13115
12504
11670
11802
12267
12659
12931
13068
12991
12925
12798
12576
12263
11598
11359
11266
11208
11172
11647
11976
12178
12287
12332
12354
12378
12388
12387
12397
12412
12507
12519
12517
12533
12507
12373
12269
12124
11976
11852
11721
11486
11444
11520
11722
11952
12268
12567
12901
13242
13626
13919
13939
13599
13057
12453
11930
11079
10654
10193
9761
9501
9428
9653
10055
10502
11461
11805
12019
12152
12286
12867
13028
13191
13286
13234
13034
12705
12627
12485
12241
12090
11882
11648
11521
11552
11607
11673
11701
11621
11604
11662
11711
11710
12138
12814
13372
13519
13343
12634
12415
12334
12347
12396
12237
11882
11497
11252
11104
11334
11553
11806
12083
12281
12278
11850
11649
11586
11706
11913
12411
12686
12861
12867
12814
12754
12680
12582
12463
12342
12255
12121
12056
12022
12024
12040
12153
12195
12213
12228
12218
12236
12400
12415
12400
12587
12720
12545
12386
12202
12058
12107
12210
11919
11710
11554
11371
11233
11563
11801
12013
12230
12356
12414
12390
12368
12337
12376
12508
12998
13161
13191
13046
12702
12067
11981
11801
11581
11529
11582
11046
10625
10360
10423
10878
11623
11911
12113
12125
11887
11531
11187
11122
11191
11663
12239
12972
13223
13388
13423
13342
12940
12649
12328
11919
11459
11054
10718
10767
10879
11092
11517
12377
12645
12830
12923
12947
12957
12961
12940
12887
12822
12753
12700
12640
12555
12509
12492
12403
12314
12252
12268
12339
12368
12282
12247
12216
12179
12109
11972
11968
11988
11963
11868
11648
11387
11557
11756
11848
11867
11892
11909
12003
12104
12172
12204
12227
12243
12255
12272
12267
12170
12129
12140
12184
12225
12274
12265
12249
12250
12224
12199
12223
12346
12574
12941
13356
13989
14173
14176
13948
13516
13063
12118
11541
10924
10296
9697
9137
8707
8554
8774
9183
9601
10506
11077
11679
12222
12650
12879
13024
13187
13352
13423
13422
13535
13441
13175
12930
12795
12653
12199
11965
11752
11600
11428
11318
11352
11398
11516
11729
12022
12363
12338
12308
12309
12282
12291
12320
12362
12429
12470
12392
12318
12265
12238
12257
12398
12761
12918
12988
12952
12862
12699
12556
12380
12177
11980
11844
11422
11190
10983
10875
10903
11233
11436
11654
11828
11938
12069
12124
12127
12112
12126
12202
12317
12296
12257
12200
12154
12187
12235
12311
12389
12425
12429
12453
12479
12501
12505
12489
12393
12401
12436
12478
12484
12399
12470
12492
12398
12321
12290
12235
12177
12201
12267
12306
12028
11794
11590
11486
11455
11395
11075
11045
11080
11143
11157
11108
11191
11413
11705
11966
12174
12382
12473
12561
12615
12649
12734
12740
12720
12682
12631
12542
12509
12490
12470
12453
12525
12623
12577
12533
12479
12447
12418
12400
12351
12254
12103
11938
11685
11607
11585
11637
11727
11841
11811
11737
11624
11557
11714
11942
12222
12464
12621
12646
12565
12492
12410
12346
12267
11958
11816
11665
11503
11339
11216
11185
11404
11787
12160
12547
13087
13141
13148
13101
12952
12802
12563
12418
12230
11934
11587
11002
10889
10975
11187
11399
11648
11596
11498
11480
11638
11891
12258
12436
12612
12748
12842
12898
12849
12748
12608
12488
12392
12137
12028
11892
11753
11639
11556
11611
11718
11865
12042
12348
12428
12461
12454
12434
12428
12408
12398
12396
12435
12498
12617
12662
12700
12743
12789
12781
12587
12392
12186
11949
11753
11469
11358
11260
11172
11125
11088
11219
11381
11594
11793
11981
12253
12340
12388
12406
12425
12477
12479
12480
12467
12415
12361
12247
12166
12235
12403
12600
12931
13124
13302
13461
13540
13546
13184
12882
12517
12140
11768
11022
10574
10175
9843
9634
9590
9684
9911
10241
10687
11727
12238
12637
12863
12947
12953
12954
12851
12665
12471
12293
11819
11736
11758
11746
11660
11614
11593
11665
11783
11970
12212
12586
12669
12690
12682
12699
12767
12774
12735
12683
12629
12556
12530
12498
12459
12417
12375
12297
12282
12270
12254
12220
12181
12171
12155
12125
12090
12066
12047
12022
12006
11989
11998
12023
12019
12005
12007
12020
12045
12081
12086
12092
12078
12053
11932
11886
11855
11828
11825
11932
11996
12022
12060
12086
12119
12175
12203
12251
12321
12391
12499
12560
12594
12587
12583
12609
12610
12507
12340
12097
11844
11462
11389
11350
11356
11392
11584
11662
11712
11758
11781
11820
12013
12121
12212
12222
12186
12099
12082
12089
12087
12086
12122
12245
12280
12320
12401
12524
12689
12780
13004
13226
13313
13245
13142
12994
12819
12568
12286
11776
11559
11342
11082
10884
10717
10637
10636
10736
10898
11068
11402
11538
11659
11781
11925
12232
12414
12517
12536
12551
12560
12586
12586
12605
12653
12713
12803
12841
12901
12954
12984
13012
12969
12898
12796
12686
12604
12420
12308
12146
11929
11687
11119
10837
10674
10638
10676
10752
11128
11402
11666
11827
11971
12228
12337
12409
12427
12433
12464
12459
12454
12465
12486
12527
12553
12549
12540
12522
12520
12525
12550
12549
12552
12502
12411
12079
11907
11790
11713
11672
11826
11944
11980
11937
11883
11887
12053
12196
12341
12469
12576
12641
12623
12583
12492
12287
11704
11383
11116
10965
10932
11022
11277
11419
11596
11782
11914
12139
12277
12380
12479
12593
12704
12877
12899
12898
12863
12801
12557
12414
12307
12187
12071
11930
11870
11826
11785
11718
11654
11685
11740
11820
11877
11878
11922
11979
12096
12264
12433
12586
12800
12849
12869
12838
12759
12476
12266
12046
11847
11748
11690
11670
11726
11778
11820
11851
11849
11872
11867
11874
11923
12079
12124
12141
12162
12189
12228
12332
12341
12344
12316
12243
12155
12159
12180
12201
12215
12211
12130
12119
12051
12018
12066
12230
12229
12159
12018
11844
11602
11514
11456
11441
11526
11735
12050
12094
12126
12146
12194
12363
12455
12529
12596
12664
12769
12963
13003
13005
12956
12900
12762
12648
12509
12376
12252
11948
11806
11661
11507
11414
11303
11167
11145
11113
11105
11149
11309
11439
11636
11864
12035
12123
12118
12098
12096
12129
12231
12566
12680
12747
12853
12993
13072
13071
13014
12957
12896
12823
12527
12333
12096
11849
11619
11332
11274
11250
11296
11380
11419
11508
11574
11634
11713
11810
11951
12002
12040
12080
12114
12155
12228
12234
12258
12317
12371
12418
12426
12438
12471
12525
12525
12501
12486
12468
12462
12433
12217
12107
12040
12004
11997
12015
11997
11976
12026
12204
12389
12533
12452
12368
12277
12215
12033
11928
11805
11677
11599
11597
11764
11914
12002
12002
12013
12045
12045
12028
12024
12048
12042
12036
12108
12272
12523
12758
12855
12778
12703
12616
12503
12170
11991
11888
11884
11921
11980
12144
12177
12153
12106
12052
11879
11810
11810
11768
11716
11768
11762
11791
11857
11900
11918
12027
12151
12274
12332
12390
12422
12379
12337
12317
12330
12333
12240
12187
12131
12055
12006
11943
11933
11938
11952
11941
11876
11768
11743
11761
11791
11836
12009
12119
12214
12252
12270
12310
12318
12338
12380
12423
12495
12667
12727
12772
12760
12675
12453
12294
12119
11941
11796
11656
11481
11528
11608
11678
11718
11757
11823
11897
11951
11939
11836
11754
11692
11728
11838
11993
12267
12359
12412
12434
12429
12492
12537
12529
12452
12372
12324
12269
12235
12224
12229
12221
12152
12123
12117
12088
12044
12018
12046
12085
12096
12107
12114
12203
12269
12291
12254
12184
12129
12134
12128
12123
12114
12118
12158
12144
12145
12139
12094
11983
11923
11868
11849
11855
11874
11901
11903
11940
11994
12032
12154
12208
12260
12310
12319
12304
12314
12325
12308
12279
12218
12149
12119
12060
12005
12013
12146
12225
12282
12283
12237
12191
12190
12207
12195
12159
12086
11980
11939
11946
11977
12043
12155
12179
12190
12169
12108
12034
11996
12074
12190
12323
12437
12521
12501
12414
12270
12144
12043
11878
11826
11793
11792
11820
11946
11972
12019
12060
12081
12087
12034
11993
11960
11927
11936
11998
12001
11991
11969
11975
12034
12060
12093
12132
12150
12170
12167
12185
12205
12194
12137
12045
12046
12034
12002
11978
11967
11939
11972
12055
12141
12263
12442
12517
12573
12590
12542
12440
12400
12363
12341
12322
12285
12142
12068
12016
11971
11940
12052
12094
12122
12167
12204
12192
12104
12065
11992
11862
11728
11600
11645
11750
11883
12053
12365
12430
12492
12522
12527
12551
12614
12576
12496
12406
12341
12225
12171
12112
12024
11918
11791
11738
11794
11830
11849
11896
11951
11937
11970
12035
12091
12149
12149
12134
12129
12125
12125
12171
12173
12160
12146
12150
12158
12185
12184
12177
12186
12233
12136
12038
12003
11966
11923
11934
11968
12025
12071
12111
12136
12169
12153
12140
12131
12124
12212
12252
12278
12237
12133
12025
11945
11853
11806
11802
11846
12027
12118
12193
12247
12297
12362
12392
12437
12483
12530
12536
12497
12434
12337
12218
12127
12036
11956
11881
11846
11823
11826
11811
11779
11801
11866
11946
12072
12142
12180
12140
12047
11935
11903
11867
11834
11865
11967
12304
12469
12597
12653
12641
12429
12305
12176
12116
12134
12223
12318
12317
12286
12199
12111
11993
11948
11901
11825
11677
11658
11783
11872
11912
11951
12005
12114
12176
12273
12387
12494
12519
12457
12392
12326
12258
12190
12080
12026
12008
11953
11850
11756
11795
11877
11981
12108
12347
12393
12398
12364
12323
12266
12209
12176
12149
12118
12090
11997
11963
11975
12013
12038
11992
11879
11803
11751
11767
11850
12086
12212
12314
12380
12413
12441
12400
12375
12355
12337
12279
12191
12230
12298
12344
12347
12293
12267
12238
12187
12094
11995
11913
11937
11988
12043
12094
12133
12093
12025
11924
11844
11830
11933
11999
12031
12004
11946
11939
11963
11955
11905
11836
11866
11936
12045
12113
12182
12278
12533
12643
12738
12777
12755
12685
12623
12557
12477
12392
12329
12090
11901
11730
11552
11396
11288
11368
11462
11539
11592
11655
11926
12110
12304
12491
12633
12781
12779
12736
12668
12557
12350
12245
12159
12092
12028
12014
12050
12055
12064
12106
12087
11903
11751
11529
11323
11239
11248
11384
11555
11724
11878
11997
12201
12300
12430
12565
12671
12744
12734
12721
12715
12727
12768
12810
12773
12704
12587
12449
12217
12133
12055
11992
11934
11885
11798
11762
11732
11721
11742
11819
11855
11871
11885
11906
11890
11841
11856
11934
12012
12075
12171
12192
12197
12187
12153
12102
12118
12164
12212
12258
12308
12359
12332
12299
12264
12229
12159
12113
12064
12011
11975
11962
11906
11849
11852
11906
11992
12111
12117
12111
12078
12080
12166
12192
12195
12159
12117
12113
12100
12054
12023
12041
12062
12134
12211
12311
12451
12561
12639
12712
12698
12586
12417
12211
11880
11747
11692
11749
11873
12086
12140
12171
12176
12122
12098
12103
12023
11881
11718
11540
11255
11281
11421
11566
11669
11808
12214
12430
12613
12764
12869
12890
12903
12925
12947
12937
12907
12710
12605
12537
12447
12310
11993
11840
11781
11756
11733
11753
11775
11831
11898
11942
11967
11927
11877
11833
11797
11783
11873
11911
11919
11944
11960
11967
11962
11952
11969
11997
11997
11989
11996
12026
12073
12110
12113
12112
12098
12094
12086
12128
12246
12266
12294
12303
12311
12327
12311
12282
12248
12214
12195
12096
12026
11954
11875
11796
11643
11625
11654
11703
11822
12194
12412
12641
12832
12939
12935
12630
12498
12362
12265
12229
12177
12118
12069
12079
12122
12169
12243
12271
12267
12234
12201
12146
12136
12123
12105
12091
12083
11931
11821
11675
11518
11434
11497
11592
11741
11870
11946
12036
12036
12103
12212
12317
12407
12511
12589
12713
12840
12952
12949
12832
12669
12501
12351
12208
11918
11845
11750
11679
11665
11739
11773
11786
11776
11790
11914
11990
12022
12027
12070
12181
12230
12142
12059
12005
11960
11837
11747
11691
11679
11700
11770
11935
12041
12144
12199
12245
12443
12601
12733
12835
12927
12989
12856
12701
12517
12317
12103
11788
11633
11416
11208
11102
11087
11141
11241
11410
11612
11818
12201
12406
12606
12763
12918
13105
13068
12954
12842
12709
12577
12326
12228
12126
12040
11880
11815
11897
11970
11999
11952
11884
11896
11921
11951
11960
11960
11984
12019
12052
12125
12204
12377
12452
12509
12526
12476
12403
12241
12168
12049
11867
11707
11569
11508
11476
11475
11524
11628
11960
12161
12351
12539
12738
12861
12814
12804
12814
12781
12466
12241
12087
12002
11909
11796
11538
11477
11480
11526
11577
11669
11719
11788
11874
11983
12087
12347
12478
12557
12616
12654
12647
12526
12405
12306
12214
12120
12087
12100
12150
12207
12205
12039
11937
11867
11810
11768
11766
11822
11884
11981
12095
12233
12359
12383
12404
12380
12345
12258
12192
12104
12024
11982
11846
11778
11765
11860
11977
12105
12278
12270
12269
12241
12197
12079
12044
12027
11961
11860
11749
11833
11924
12001
12087
12183
12457
12628
12778
12880
12890
12822
12485
12317
12194
12112
12044
11979
11963
11962
11960
11916
11879
11878
11871
11808
11716
11719
11922
12021
12022
11985
11949
11931
11908
11906
11944
12018
12119
12424
12548
12638
12652
12556
12296
12184
12110
12024
11928
11850
11832
11824
11808
11801
11740
11758
11861
11948
11987
12058
12444
12639
12777
12874
12916
12900
12754
12694
12568
12383
12208
11845
11710
11670
11678
11706
11749
11751
11772
11800
11806
11793
11759
11787
11857
11927
11978
12123
12255
12386
12470
12519
12550
12528
12471
12446
12418
12374
12215
12099
11992
11901
11841
11866
11892
11924
11995
12111
12235
12235
12200
12177
12168
12158
12087
12000
11964
11980
12020
12074
12221
12295
12320
12218
12012
11764
11732
11710
11726
11806
11951
12157
12261
12391
12552
12689
12806
12754
12636
12467
12269
11928
11821
11751
11726
11747
11784
11739
11631
11501
11508
11713
12184
12283
12326
12378
12412
12375
12357
12330
12240
12155
12119
12235
12435
12645
12824
12939
12978
12818
12639
12486
12346
12201
11763
11548
11431
11370
11260
11068
11080
11112
11150
11261
11404
11652
11800
11944
12037
12110
12530
12788
13001
13139
13217
13209
13077
12984
12904
12763
12546
11725
11311
11180
11197
11253
11532
11697
11835
11942
12049
12159
12317
12412
12500
12605
12716
12819
12757
12650
12513
12339
12219
12157
12182
12254
12276
12223
11939
11803
11702
11678
11681
11668
11667
11731
11780
11809
11829
11902
11986
12037
12072
12142
12318
12371
12379
12342
12291
12264
12166
12074
12014
11976
11886
11685
11695
11838
12052
12177
12180
11733
11657
11754
11873
11956
12189
12293
12285
12216
12123
12035
12154
12441
12823
13183
13527
14025
14050
13890
13558
13123
12328
12056
11785
11542
11341
11135
10760
10724
10754
10792
10879
11104
11211
11361
11540
11687
11963
12090
12161
12184
12169
12252
12529
12656
12740
12800
12829
12771
12686
12599
12509
12394
12249
12146
12075
11909
11740
11641
11615
11679
11763
11852
11913
11984
12182
12283
12386
12427
12439
12466
12450
12372
12317
12343
12473
12458
12403
12342
12218
12062
11892
11908
11935
11877
11712
11375
11395
11556
11766
11984
12260
12686
12728
12676
12554
12423
12215
12215
12258
12213
12132
12025
12005
11999
11999
12023
12011
12043
12117
12202
12267
12305
12391
12450
12456
12405
12318
12236
12058
11984
11913
11865
11823
11745
11764
11794
11783
11786
11826
11830
11881
11935
11934
11910
11968
12003
12035
12058
12106
12167
12197
12261
12347
12441
12525
12603
12637
12678
12640
12526
12496
12381
12127
11900
11829
11860
11853
11832
11792
11782
11833
12017
12005
11981
12010
12072
12271
12380
12443
12480
12477
12456
12350
12282
12149
12000
11951
12011
11999
11957
11869
11793
11733
11729
11743
11790
11910
12110
12399
12386
12354
12388
12389
12245
12171
12110
12044
12014
12069
12143
12167
12221
12332
12407
12416
12332
12283
12214
12111
12013
11828
11747
11644
11559
11526
11769
11973
12202
12399
12550
12689
12756
12707
12647
12602
12481
12110
11928
11806
11757
11785
11780
11716
11676
11690
11744
11875
12138
12206
12290
12344
12393
12447
12418
12316
12061
11795
11652
11783
11835
11727
11655
11736
12085
12234
12361
12484
12598
12732
12710
12645
12562
12392
12257
12253
12262
12155
12046
11990
12004
12077
12118
12054
11900
11806
11910
11987
12076
12188
12235
12202
12180
12158
12093
11975
11887
11771
11764
11842
11952
12101
12388
12489
12543
12564
12582
12656
12642
12523
12402
12231
12008
11605
11452
11405
11502
11678
11952
12064
12185
12186
12100
12057
12117
12128
12093
12097
12132
12218
12165
12027
11839
11645
11531
11617
11733
11862
11991
12120
12384
12482
12551
12613
12666
12589
12563
12581
12596
12636
12667
12565
12402
12252
12134
12094
11977
11894
11850
11829
11839
12003
12104
12188
12184
12130
12069
12060
12019
11990
11976
11894
11703
11696
11742
11787
11856
11974
12206
12251
12271
12263
12215
12033
11981
11987
11999
11979
11901
11819
11931
12049
12128
12224
12358
12318
12255
12192
12156
12139
12159
12183
12209
12261
12349
12491
12558
12563
12527
12459
12227
12050
11902
11784
11682
11660
11814
11902
11990
12077
12172
12381
12477
12571
12620
12569
12305
12180
12055
11934
11823
11765
11875
11964
12026
12048
12089
12115
12094
12067
12063
12096
12133
12275
12303
12302
12320
12370
12472
12535
12564
12534
12498
12448
12224
12098
11981
11862
11775
11606
11559
11604
11644
11600
11464
11493
11583
11654
11698
11760
11759
11772
11766
11763
11811
12194
12394
12525
12583
12616
12623
12638
12601
12495
12283
12036
11835
11907
12048
12197
12331
12477
12458
12458
12507
12579
12600
12618
12582
12457
12273
12145
12081
12082
12059
12009
11981
11981
12011
12018
12063
12140
12196
12141
12078
12003
11945
11893
11913
11972
12026
12059
12017
11982
12015
12036
12132
12276
12386
12419
12396
12339
12236
12108
12024
11945
11907
11864
11840
11813
11850
11912
11938
11929
11951
12014
12238
12299
12264
12178
12181
12419
12473
12401
12282
12169
11937
11861
11801
11758
11735
11691
11494
11426
11454
11509
11582
11966
12163
12276
12343
12427
12525
12628
12632
12633
12631
12595
12581
12628
12673
12686
12654
12549
12498
12477
12435
12309
12152
11959
11891
11835
11793
11800
11980
12041
12065
12024
11950
11919
12141
12352
12494
12549
12551
12438
12292
12139
12043
11971
11919
11822
11722
11649
11579
11508
11326
11326
11369
11415
11558
12069
12232
12206
12097
12030
12039
12295
12454
12606
12716
12778
12789
12728
12587
12413
12243
12122
11764
11627
11594
11672
11747
11953
12065
12143
12189
12208
12158
12118
12117
12144
12216
12260
12153
12039
11999
12015
12091
12196
12244
12299
12319
12279
12229
12209
12240
12272
12292
12266
12107
12036
12054
12187
12373
12654
12710
12716
12710
12679
12632
12404
12265
12102
11938
11786
11580
11560
11610
11655
11719
11850
12015
12001
11977
11966
12018
12283
12325
12314
12207
12005
11733
11206
11052
11034
11105
11182
11380
11591
11828
12087
12442
12973
13092
13216
13335
13400
13402
13279
13148
13028
12903
12712
12303
12076
11826
11541
11300
11158
11086
11185
11334
11481
11579
11740
11875
12033
12128
12187
12249
12251
12254
12272
12293
12306
12208
12069
11867
11686
11584
11742
11929
12070
12204
12323
12376
12393
12480
12595
12677
12704
12593
12512
12448
12355
12272
12228
12013
11862
11780
11796
11867
11933
11980
12035
12068
12061
12098
12140
12186
12278
12420
12522
12627
12638
12662
12668
12696
12630
12499
12267
11961
11559
11186
10885
10866
10915
11042
11175
11533
11775
11935
11986
12055
12226
12326
12372
12321
12226
12206
12492
12644
12764
12856
12927
12950
12873
12700
12452
12192
11974
11675
11637
11679
11759
11834
11925
11967
12031
12123
12238
12326
12272
12247
12223
12155
12039
11749
11635
11626
11727
11843
12095
12224
12304
12353
12362
12299
12134
12005
11910
11909
12005
12310
12441
12525
12545
12590
12631
12541
12466
12372
12258
12164
11957
11863
11829
11802
11773
11801
11887
11981
12097
12236
12392
12959
13253
13507
13637
13627
13228
12880
12518
12232
12100
11944
11631
11592
11525
11365
11145
10661
10360
10137
10032
9994
9956
9980
10078
10531
10845
11317
11849
12295
12536
12849
13067
13327
13596
13854
14234
14310
14312
14367
14437
14206
13908
13509
13054
12525
11956
10815
10401
10142
9956
9798
9741
9836
10046
10260
10776
10979
11058
11130
11312
12046
12491
12864
13135
13298
13371
13337
13269
13194
13118
13058
12925
12862
12804
12775
12806
12877
13053
13175
13225
13172
13077
12817
12648
12445
12151
11763
10839
10410
10118
9971
10016
10148
10239
10509
10824
11245
11618
11936
12577
12866
13054
13119
13135
13116
13213
13244
13173
13008
12795
12520
12448
12315
12112
11961
12249
12490
12594
12640
12655
12698
12491
12171
11862
11658
11486
10928
10782
10881
11094
11279
11368
11458
11409
11329
11295
11350
11703
11902
12028
12111
12205
12286
12298
12331
12423
12529
12604
12701
12755
12828
13003
13344
14166
14465
14522
14380
14105
13771
13074
12719
12340
11904
11408
10271
9692
9180
8887
8898
9148
9435
9773
10255
10830
11417
11994
12699
12850
12807
12632
12438
12077
12103
12221
12285
12317
12378
12437
12475
12532
12553
12596
12767
12861
12934
12989
13098
13358
14106
14313
14320
14219
14019
13382
12985
12489
11915
11311
10174
9634
9100
8627
8359
8521
9218
10108
10866
11533
12061
12699
12875
12973
12954
12832
12714
12600
12501
12390
12340
12360
12570
12588
12647
12840
13184
13573
14058
14240
14370
14388
14275
13639
13168
12635
12064
11395
10032
9459
8873
8379
8168
8280
8797
9485
10120
10716
11438
12167
12999
13319
13477
13508
13472
13369
12983
12760
12462
12072
11695
11324
11374
11520
11666
11855
12093
12471
12634
12716
12749
12774
12656
12634
12670
12690
12687
12638
12622
12630
12617
12591
12552
12473
12450
12446
12451
12435
12210
12114
12070
12063
12045
11992
11805
11707
11607
11496
11453
11618
11735
11797
11815
11847
11936
11887
11828
11892
12116
12520
13218
13308
13239
13088
12829
12226
11932
11717
11704
11757
11761
11795
11747
11675
11596
11492
11491
11658
11778
11873
11984
12476
12771
12834
12820
12800
12732
12479
12271
12011
11606
11022
9903
9613
9609
9870
10216
10687
11341
11941
12287
12709
12989
13291
13520
13694
13916
14576
14785
14781
14567
14183
13313
12841
12366
11870
11339
10892
10307
9971
9647
9465
9518
9831
10208
10616
11147
11624
12113
12392
12672
12900
12996
12812
12677
12561
12446
12334
12565
13000
13431
13745
14143
14682
15293
15113
14702
14147
13448
11960
11182
10415
9792
9398
9125
8899
8809
9079
9594
10125
10481
11003
11301
11585
11788
11958
12140
12324
12319
12349
12439
12540
12614
12615
12702
13026
13574
14064
13865
13675
13502
13312
13015
12296
11949
11607
11393
11481
11454
11180
11056
11252
11658
11995
12467
12579
12645
12574
12405
12002
11760
11434
11155
10927
10894
11116
11244
11280
11422
11850
12753
13049
13384
13798
14146
14131
13879
13539
13204
13043
12909
12275
12079
11929
11788
11925
11918
11979
12101
12106
11987
11461
11113
10894
11095
11639
11980
11860
11753
11774
11767
11529
11252
11281
11809
13031
14352
15547
16788
16317
15368
14318
13532
12125
11091
9854
8400
6702
5285
4451
3972
3782
3916
4677
6058
7659
9225
11274
13815
15890
17830
17678
17208
16742
16398
15356
14663
14093
13556
12882
11794
11425
11077
11265
12200
13357
14760
15136
15174
14621
13721
11977
11508
11128
10742
10238
9521
8863
8860
9625
10506
11376
12264
13143
13418
13312
13401
13386
13253
13083
13089
13106
12628
11909
11373
10857
10742
14555
15741
16061
16371
16699
15752
14676
13127
11286
9336
7647
6104
4694
3590
3097
3111
3683
4764
6192
7764
10354
11564
12832
13984
15112
16066
17322
18199
18959
19300
19038
17246
16155
15271
14255
13080
12134
10270
9159
8183
7473
7512
7729
8096
8901
9802
10476
10833
11299
12910
14555
16765
18334
18527
17959
16300
15357
14691
14251
13678
11129
9035
6719
5195
4627
4612
5182
6305
7684
9007
9896
10422
10893
11599
12626
14377
14867
15008
15142
15354
15291
15060
14945
14580
13900
13485
14293
14902
15160
15093
15272
15483
14084
11961
10060
8827
7778
6689
5982
5752
5895
6316
7167
8318
9486
10466
12241
12761
13031
13285
13656
14518
14774
14728
14224
13389
11766
11824
12171
12464
12545
12708
13401
13118
12787
12567
12421
13545
14848
15984
16497
16425
15881
14765
14519
14358
13619
12528
8836
6469
4522
3258
2794
3258
4564
6122
7271
8008
8703
9682
10912
11943
12838
13739
14856
16175
16694
16792
16503
15967
14879
14313
13542
12827
12214
11614
11542
11601
11663
11776
12165
13078
13409
13557
13324
12990
12069
11721
11663
11787
11925
12141
12681
12744
12713
12843
13141
13716
13099
12262
11444
10599
9395
9807
11195
13010
14115
14268
13952
13468
12631
12688
12886
12816
12321
10266
8980
7868
6951
6507
6855
7684
8788
9939
10910
11519
11957
12405
13601
14188
14725
14877
14870
14883
14676
14804
15177
15629
15887
16074
15488
14371
13219
12287
10930
10266
9524
8759
8076
7636
7521
7353
7385
7857
8610
9585
10683
11629
12257
12981
13405
13675
13771
13898
13972
13812
13542
13302
13204
13049
12286
11901
11675
11583
11688
12346
12608
12770
12946
13172
13613
13815
14137
14759
15661
16090
16161
15546
14567
13559
12412
9067
7374
6499
6077
5562
4994
5083
5974
7638
9535
11094
12179
12922
13426
13759
14224
14355
14363
14160
13921
13508
13312
13082
12862
12713
12557
12222
12420
12669
12777
12723
12660
12549
12353
12124
11937
11647
11347
10997
10668
10312
10143
11306
12110
12763
13259
13807
14846
14702
14333
13991
13663
13363
12306
11428
10535
9738
8963
8234
8069
8734
9832
10797
11481
12239
12400
12606
12820
12967
13292
13415
13368
13331
13458
14175
14203
14002
13603
13117
12677
11682
11147
10777
10530
10349
10464
10527
10798
11275
11701
12004
12454
12634
12807
12929
12929
12505
12466
12642
12770
12762
12741
12694
12586
12406
12126
11856
11255
11020
10825
10799
11037
11778
12092
12365
12581
12647
12545
12547
12664
12679
12562
12333
12611
12812
12907
13056
13239
13154
12469
11957
11369
10666
9970
9522
9451
9709
10138
11099
11355
11601
11960
12367
12865
12977
13042
13096
13331
13781
13791
13715
13530
13296
13110
12783
12517
12174
11850
11652
11409
11158
10788
10643
10929
11440
12001
12035
11968
11836
11864
12516
12679
12482
12061
11673
11576
11682
11656
11639
11709
11846
12002
12048
12026
12031
12173
12515
12560
12530
12424
12279
12139
12294
12566
12957
13201
13252
12966
12658
12446
12322
12257
12212
11872
11659
11510
11469
11624
12181
12462
12660
12756
12682
12260
12062
11940
11867
11676
11374
11329
11785
12221
12270
12003
11770
11658
11529
11374
11313
11428
11589
11577
11438
11295
11377
11919
12327
12738
13065
13264
13248
13162
13055
12893
12740
12622
12382
12123
11780
11477
11388
11738
11861
11977
12138
12310
12515
12802
12787
12711
12693
12814
12631
12336
11955
11608
11414
11379
11444
11448
11461
11461
11468
11585
11570
11605
11768
11964
12283
12384
12433
12467
12494
12527
12576
12572
12570
12561
12531
12502
12489
12452
12427
12421
12422
12438
12410
12364
12307
12228
11997
11945
11991
12078
12122
11896
11808
11818
11888
11992
12096
12243
12289
12273
12201
12186
12088
11957
11841
11850
11936
11979
11907
11754
11644
11648
11767
12117
12310
12474
12549
12561
12532
12401
12311
12206
12148
12248
12454
12399
12437
12613
12807
12671
12389
12107
11801
11483
11139
10532
10375
10272
10291
10442
11056
11555
12055
12456
12721
13039
13577
13631
13557
13441
13319
13088
12897
12588
12192
11683
10806
10599
10625
10810
11059
11320
11616
11766
11974
12178
12390
12738
12880
13027
13175
13290
13381
13457
13405
13274
13082
12836
12251
11963
11679
11379
11061
10596
10614
10790
11009
11215
11384
11694
11831
11959
12068
12182
12532
12659
12684
12631
12581
12587
12599
12597
12571
12569
12570
12473
12341
12267
12247
12218
12219
12141
12006
11852
11704
11610
11604
11662
11702
11691
11743
11960
12032
12078
12111
12159
12221
12272
12245
12199
12129
12090
12203
12282
12328
12330
12322
12331
12350
12365
12426
12541
12647
12771
12934
13208
13494
13779
13686
13297
12760
12193
11665
11306
10845
10596
10351
10212
10252
10659
10924
11168
11393
11564
11632
11719
11688
11656
11729
11875
12228
12336
12367
12349
12328
12329
12402
12382
12238
12009
11803
11742
11868
12004
12125
12262
12521
12614
12677
12727
12781
12871
13110
13201
13248
13256
13201
12956
12771
12549
12340
12127
11865
11361
11148
10873
10564
10383
10708
11099
11547
11933
12188
12357
12390
12488
12654
12812
12923
12988
12967
12915
12812
12688
12375
12219
12022
11812
11602
11417
11308
11406
11597
11824
11976
11967
11910
11903
11963
12054
12175
12419
12476
12518
12617
12731
12741
12709
12661
12614
12614
12643
12620
12564
12465
12300
12082
11539
11301
11207
11208
11308
11804
11945
12026
12164
12356
12518
12423
12281
12173
12164
12192
11989
11798
11633
11482
11248
10772
10760
10942
11131
11241
11409
11954
12074
12098
12077
12164
12551
12698
12759
12773
12751
12716
12604
12578
12554
12515
12438
12418
12496
12538
12517
12459
12384
12363
12374
12386
12407
12423
12441
12383
12313
12250
12194
12070
11938
11813
11719
11656
11606
11492
11468
11503
11576
11654
11786
11869
11966
12036
12087
12157
12289
12360
12426
12479
12510
12584
12597
12605
12588
12555
12434
12334
12216
12147
12122
12129
12171
12232
12295
12351
12390
12439
12433
12374
12263
12159
12071
11977
11962
12042
12165
12181
12175
12094
11958
11804
11642
11721
11808
11783
11739
11620
11457
11234
11220
11193
11145
11198
11785
12039
12219
12318
12377
12415
12546
12574
12578
12551
12512
12392
12332
12257
12192
12154
12146
12192
12206
12268
12333
12369
12384
12399
12409
12400
12391
12332
12256
12137
11994
11891
11869
11956
12023
12128
12260
12376
12581
12655
12692
12628
12479
12317
12034
11924
11855
11782
11726
11627
11487
11353
11323
11365
11603
11729
11816
11877
11920
11993
12192
12248
12266
12249
12212
12338
12490
12622
12740
12851
12926
12849
12756
12659
12586
12542
12545
12511
12388
12219
12013
11617
11530
11503
11487
11549
11691
11864
11785
11691
11682
11705
11574
11508
11544
11679
11825
11882
12016
12172
12317
12412
12472
12530
12545
12526
12488
12485
12545
12735
12877
13037
13205
13295
13164
12992
12779
12566
12398
11974
11746
11528
11391
11282
11096
10837
10887
11036
11095
11062
11114
11258
11436
11529
11529
11521
11773
11968
12126
12248
12388
12627
12645
12640
12648
12669
12704
12671
12637
12600
12545
12508
12406
12339
12308
12294
12294
12468
12599
12673
12689
12682
12679
12565
12453
12318
12144
11976
11703
11582
11475
11406
11373
11366
11534
11625
11652
11619
11554
11610
11754
11885
11971
12064
12411
12534
12621
12637
12621
12580
12624
12732
12802
12812
12789
12691
12586
12425
12262
12067
11903
11711
11694
11734
11808
11841
11822
11762
11681
11605
11570
11718
11868
12056
12220
12321
12337
12141
11955
11794
11726
11790
12110
12312
12520
12697
12788
12796
12687
12576
12406
12252
12126
11998
11950
11912
11871
11848
11854
11829
11776
11707
11623
11580
11529
11577
11709
11889
12060
12278
12364
12483
12570
12611
12606
12420
12276
12164
12092
12024
11984
12023
12079
12120
12150
12196
12208
12238
12289
12334
12372
12353
12306
12238
12175
12134
12059
12075
12147
12245
12309
12352
12362
12372
12363
12323
12240
12067
12010
11986
12019
12077
12156
12276
12326
12359
12389
12403
12387
12345
12280
12145
11938
11457
11286
11183
11153
11201
11321
11492
11507
11545
11592
11645
11837
12033
12304
12553
12726
12810
12844
12769
12669
12563
12464
12277
12208
12110
12030
12032
12050
12042
12055
12097
12144
12204
12259
12244
12241
12262
12287
12258
12239
12234
12232
12241
12282
12390
12384
12331
12234
12100
11924
11936
12002
12055
12042
12007
12013
12050
12063
12001
11968
11999
12049
12085
12092
12036
11873
11806
11761
11727
11716
11723
11847
11909
11977
12068
12126
12184
12201
12240
12290
12362
12406
12491
12510
12495
12440
12382
12265
12217
12185
12207
12219
12321
12340
12317
12276
12222
12145
11964
11883
11831
11809
11803
11815
11877
11960
12050
12099
12125
12181
12196
12209
12207
12190
12173
12191
12210
12218
12205
12183
12119
12095
12026
11975
11944
11931
11993
12089
12201
12292
12428
12479
12479
12454
12429
12367
12200
12066
11964
11874
11782
11645
11617
11629
11651
11689
11742
11851
11901
11983
12038
12046
12077
12061
12094
12165
12260
12388
12397
12381
12373
12368
12393
12490
12554
12605
12618
12571
12432
12333
12251
12179
12088
12016
11923
11884
11900
11921
11918
11925
11921
11945
11963
11952
11931
11870
11865
11851
11840
11826
11847
11890
11953
12028
12113
12294
12373
12474
12576
12655
12690
12676
12624
12560
12482
12379
12243
12236
12226
12184
12114
12057
11909
11837
11750
11670
11611
11604
11632
11657
11657
11664
11811
11933
12067
12222
12353
12477
12649
12638
12612
12594
12560
12464
12393
12315
12236
12096
11877
11562
11500
11516
11614
11806
12101
12145
12196
12250
12259
12237
12170
12123
12085
12041
12013
12024
12036
12046
12046
12046
12028
12050
12113
12175
12203
12219
12224
12221
12205
12192
12175
12092
12077
12088
12130
12182
12246
12258
12255
12251
12297
12361
12464
12463
12433
12387
12344
12255
12179
12079
12021
11995
11985
11928
11935
11951
11955
11926
11904
11929
11947
11944
11889
11879
11902
11938
11930
11920
11932
12044
12112
12188
12282
12394
12445
12377
12314
12290
12276
12269
12211
12191
12175
12141
12099
11975
11966
12001
12041
12033
11955
11884
11895
11922
11973
12034
12195
12270
12326
12345
12340
12347
12383
12404
12458
12514
12556
12448
12350
12275
12199
12088
11955
11973
12001
12030
12082
12112
12086
12050
12005
11928
11836
11656
11610
11610
11636
11677
11739
11886
11944
11970
11954
11930
11897
11953
12044
12118
12142
12205
12254
12293
12317
12342
12401
12560
12581
12560
12509
12419
12294
12256
12216
12199
12180
12162
12125
12125
12139
12188
12229
12228
12201
12180
12162
12155
12149
12094
12024
11969
11940
11927
11923
11879
11816
11798
11800
11899
12005
12108
12193
12255
12288
12308
12285
12235
12180
12124
12023
12017
12049
12078
12103
12117
12187
12248
12296
12298
12273
12235
12184
12142
12157
12181
12133
12072
11999
11966
11984
12026
12097
12131
12152
12192
12221
12165
12104
12066
12064
12099
12158
12273
12320
12342
12350
12330
12212
12180
12159
12113
12080
12031
12006
12000
12018
12081
12160
12218
12152
12046
11885
11710
11576
11612
11669
11736
11795
11829
11868
11909
11989
12059
12127
12231
12232
12265
12334
12444
12551
12626
12554
12429
12330
12273
12131
12055
12001
11986
12014
12157
12260
12327
12344
12317
12283
12253
12217
12162
12112
12084
12018
11982
11971
11928
11851
11783
11767
11822
11890
11961
12014
12099
12136
12165
12172
12191
12213
12228
12239
12226
12221
12232
12288
12287
12263
12215
12158
12054
12035
12036
12052
12100
12170
12318
12371
12396
12407
12389
12287
12230
12198
12184
12175
12128
12025
11968
11919
11920
11967
12063
12074
12072
12024
11958
11930
11984
12024
12066
12084
12078
12066
12044
11998
11932
11883
11925
12004
12106
12202
12276
12339
12358
12351
12369
12406
12447
12383
12344
12297
12194
12036
11563
11362
11259
11228
11265
11360
11733
11895
12003
12098
12204
12425
12519
12610
12695
12721
12724
12694
12652
12611
12595
12551
12223
12094
12018
11971
11952
11962
11959
12001
12018
12030
12074
12147
12143
12132
12118
12121
12140
12148
12144
12133
12111
12078
12035
12036
12037
12032
12040
12083
12079
12091
12117
12137
12131
12038
12027
12059
12116
12152
12179
12139
12114
12107
12139
12257
12315
12348
12385
12388
12342
12166
12081
11973
11888
11837
11666
11622
11654
11736
11830
11912
12019
12033
12068
12132
12226
12456
12566
12611
12564
12462
12269
12163
12026
11932
11880
11857
11759
11775
11895
12004
12060
12071
12001
11901
11856
11887
11957
12112
12245
12341
12367
12361
12386
12404
12419
12411
12393
12340
12238
12245
12257
12222
12151
12037
12001
11945
11899
11818
11758
11879
12062
12243
12391
12488
12610
12614
12624
12621
12602
12470
12350
12255
12207
12157
12127
12046
11919
11793
11719
11695
11631
11613
11595
11616
11672
11896
12027
12192
12333
12433
12457
12391
12297
12179
12104
12085
11947
11830
11756
11742
11714
11697
11753
11861
12007
12093
12183
12399
12430
12403
12342
12240
12040
11966
11909
11923
12000
12033
12162
12261
12329
12370
12410
12446
12492
12520
12506
12453
12403
12329
12288
12238
12186
12121
11936
11877
11860
11851
11857
11872
11950
12000
12054
12088
12100
12111
12100
12104
12110
12134
12145
12158
12163
12167
12142
12125
12129
12125
12101
12094
12059
12002
11986
11970
11975
12013
12086
12224
12262
12273
12245
12182
12073
12032
12007
12027
12071
12135
12160
12170
12113
12087
12077
12131
12170
12198
12181
12128
12041
12042
12064
12101
12166
12239
12387
12370
12265
12121
12050
12014
12008
12076
12123
12139
12189
12226
12270
12322
12342
12353
12309
12255
12247
12271
12235
12096
12062
12010
11915
11822
11793
11933
12056
12178
12288
12369
12368
12298
12205
12109
12044
12037
11981
11909
11824
11785
11793
11735
11673
11655
11692
11747
11827
11897
11995
12129
12295
12425
12547
12536
12523
12509
12455
12363
12332
12326
12342
12339
12336
12271
12209
12156
12100
12048
11967
11917
11882
11870
11889
11930
11975
11985
12002
12030
12069
12138
12147
12160
12160
12145
12052
12019
11969
11912
11885
11915
12083
12164
12255
12341
12396
12433
12443
12416
12354
12303
12268
12240
12202
12161
12121
12048
11899
11836
11784
11729
11701
11855
11956
12021
12071
12114
12148
12183
12217
12252
12284
12276
12276
12320
12311
12275
12182
12095
11954
11897
11862
11809
11744
11767
11859
11988
12164
12371
12677
12760
12783
12749
12654
12503
12117
11951
11839
11770
11756
11805
11826
11924
12033
12117
12153
12122
12125
12174
12254
12360
12567
12649
12650
12595
12503
12408
12179
12057
11961
11933
11947
11897
11855
11881
11913
11923
12000
12057
12084
12037
11988
11936
11829
11798
11769
11736
11723
11746
11824
11947
12103
12239
12326
12283
12258
12265
12230
12152
12120
12132
12167
12181
12232
12478
12577
12633
12660
12647
12592
12438
12321
12183
12027
11894
11799
11765
11741
11707
11723
11766
11878
11927
11975
12016
12043
12067
12023
11936
11827
11745
11824
11946
12106
12274
12421
12515
12511
12476
12417
12378
12345
12364
12388
12418
12441
12453
12436
12333
12281
12265
12270
12277
12239
12179
12043
11860
11666
11541
11443
11488
11594
11713
11831
12162
12343
12480
12516
12465
12340
12255
12241
12246
12216
12130
11918
11890
11904
11932
11946
11981
11955
11910
11860
11872
11937
12159
12299
12410
12437
12393
12240
12232
12208
12145
12088
12003
11929
11885
11836
11764
11697
11809
11992
12251
12532
12793
13119
13168
13117
12980
12777
12563
12191
12115
12126
12151
12188
12109
12028
11954
11913
11875
11795
11666
11641
11616
11607
11607
11572
11593
11629
11624
11655
11773
11735
11723
11807
11903
12032
12344
12484
12610
12672
12691
12624
12545
12484
12470
12490
12512
12504
12467
12362
12236
12090
11905
11901
11880
11860
11820
11766
11773
11790
11817
11824
11841
11928
12000
12066
12045
11939
11811
11809
11856
11924
12060
12224
12526
12685
12856
12982
13052
13003
12886
12697
12479
12279
12134
11899
11843
11831
11875
11934
12058
12127
12126
12097
12064
12053
12079
12086
12068
12064
12080
12095
12076
12062
12037
11945
11752
11699
11632
11621
11629
11653
11788
11928
12018
12099
12197
12421
12450
12424
12340
12272
12278
12312
12336
12333
12293
12269
12238
12208
12179
12121
12062
12066
12096
12108
12077
12031
12043
12179
12164
12050
11836
11637
11406
11392
11439
11516
11626
11957
12117
12293
12495
12689
12883
13118
12976
12828
12741
12683
12500
12365
12241
12128
12059
12004
11806
11754
11812
11960
12083
12133
12133
12147
12153
12153
12158
12186
12250
12321
12386
12397
12321
12288
12261
12194
12110
11942
11789
11602
11465
11394
11376
11426
11464
11501
11598
11718
11851
11937
12104
12309
12501
12628
12798
12852
12914
12874
12793
12549
12397
12266
12113
12021
12019
12029
12028
11922
11813
11797
11897
11943
11943
11933
11938
11951
11979
12024
12058
12105
12170
12278
12294
12276
12231
12170
12077
12075
12090
12099
12119
12135
12115
12161
12221
12267
12275
12197
12139
12047
11981
11996
12155
12185
12168
12101
12030
11927
11757
11712
11643
11608
11666
11915
12010
11999
11924
11868
11900
11997
12041
12133
12159
12172
12252
12358
12515
12631
12721
12945
13090
13197
13204
13123
13040
12849
12712
12479
12230
12030
11774
11721
11686
11672
11639
11626
11728
11796
11878
11942
11958
11904
11864
11829
11762
11739
11765
11707
11653
11658
11729
11832
11975
12051
12129
12168
12184
12157
12148
12186
12243
12303
12390
12591
12686
12738
12720
12647
12389
12231
12039
11869
11722
11571
11362
11335
11418
11564
11757
12164
12375
12566
12704
12817
12808
12531
12215
11958
11733
11527
11310
11385
11523
11678
11881
12459
12699
12840
12928
12997
13012
12960
12960
12954
12810
12517
11971
11800
11678
11614
11623
11674
11669
11684
11737
11827
11915
12057
12120
12165
12142
12104
12139
12166
12135
12027
11903
11790
11731
11689
11606
11546
11565
11838
12035
12223
12434
12621
12761
12979
13034
13044
13009
12905
12589
12368
12141
11890
11612
11284
11273
11326
11426
11583
11795
12152
12292
12381
12473
12583
12674
12617
12468
12186
11867
11644
11334
11214
11156
11204
11332
11669
11922
12196
12431
12569
12696
12839
12974
13028
12956
12840
12705
12585
12472
12402
12330
12144
12021
11871
11709
11622
11677
11959
12109
12186
12213
12247
12339
12372
12355
12309
12300
12126
11989
11839
11688
11566
11516
11637
11696
11752
11781
11792
11892
11933
11929
11885
11795
11682
11510
11487
11598
11815
12067
12573
12768
12923
13028
13124
13226
13298
13246
13136
12975
12807
12446
12286
12131
12014
11897
11623
11495
11409
11396
11430
11543
11666
11573
11548
11603
11702
11878
11992
12112
12187
12236
12266
12254
12236
12249
12293
12354
12377
12391
12438
12497
12489
12287
12158
12024
11848
11707
11648
11598
11607
11687
11821
11979
12265
12423
12543
12619
12681
12724
12476
12272
12127
12015
11936
11895
11883
11916
11984
12116
12269
12525
12542
12538
12499
12420
12222
12149
12061
11983
11893
11725
11653
11612
11635
11650
11681
11691
11688
11673
11614
11554
11711
11843
11958
12090
12235
12356
12499
12559
12616
12686
12743
12710
12663
12597
12496
12323
12142
12228
12323
12418
12489
12514
12434
12381
12297
12190
12071
11907
11847
11765
11715
11696
11710
11831
11940
12045
12092
12084
12047
12015
11982
12001
12048
12058
11973
11865
11785
11721
11714
11929
12021
12088
12143
12219
12308
12332
12350
12363
12379
12416
12506
12564
12607
12598
12551
12451
12331
12199
12082
11993
11890
11814
11802
11825
11850
11863
11813
11780
11749
11732
11746
11871
11925
11952
11972
12019
12101
12246
12300
12318
12296
12278
12374
12421
12427
12381
12329
12289
12150
12093
12072
12064
12030
11998
12061
12141
12184
12278
12506
12529
12494
12442
12397
12320
12065
12023
11979
11902
11839
11783
11784
11787
11787
11827
11899
11957
11953
11942
11937
11933
11980
12061
12211
12389
12519
12583
12691
12712
12623
12526
12470
12379
12376
12366
12286
12148
11957
11889
11841
11822
11869
11912
11782
11667
11569
11497
11447
11386
11485
11628
11786
11952
12112
12296
12341
12419
12565
12725
12929
12893
12771
12627
12508
12256
12148
12044
11943
11847
11781
11822
11927
12033
12114
12173
12108
12087
12108
12104
12014
11856
11660
11696
11784
11900
11997
12118
12198
12253
12250
12197
12175
12187
12233
12271
12294
12325
12300
12301
12299
12290
12321
12451
12468
12458
12356
12191
12035
11835
11832
11890
12017
12165
12471
12593
12667
12705
12686
12652
12345
12086
11908
11785
11684
11469
11439
11517
11608
11671
11695
11753
11866
11996
12099
