12026
12092
12163
12209
12234
12230
12194
12161
12180
12214
12214
12237
12231
12230
12235
12220
12194
12174
12179
12158
12117
12100
12116
12110
12104
12047
12039
12028
12089
12135
12190
12225
12246
12201
12209
12208
12201
12238
12255
12270
12241
12201
12198
12174
12126
12163
12156
12131
12121
12077
12092
12088
12012
11990
12034
12026
12069
12176
12217
12232
12229
12194
12187
12236
12235
12257
12278
12305
12300
12289
12283
12227
12252
12238
12214
12161
12162
12178
12165
12120
12045
12038
12022
12036
12115
12139
12138
12178
12135
12128
12145
12178
12184
12251
12276
12251
12241
12251
12211
12186
12212
12220
12190
12187
12195
12180
12148
12079
12046
12090
12113
12144
12204
12199
12222
12186
12156
12151
12198
12200
12222
12248
12254
12244
12217
12240
12243
12216
12207
12176
12160
12150
12148
12170
12145
12083
12073
12083
12105
12145
12178
12206
12187
12123
12108
12118
12166
12173
12237
12271
12274
12209
12209
12198
12202
12193
12170
12143
12143
12173
12170
12130
12034
12022
12039
12067
12123
12189
12200
12197
12148
12107
12092
12166
12168
12191
12245
12239
12241
12222
12227
12208
12207
12167
12152
12150
12145
12146
12128
12083
12100
12068
12097
12082
12123
12189
12224
12232
12185
12149
12176
12203
12199
12236
12257
12269
12267
12226
12231
12239
12226
12188
12167
12181
12194
12179
12159
12079
12061
12081
12085
12116
12206
12234
12216
12147
12090
12129
12196
12202
12234
12216
12214
12207
12184
12134
12098
12081
12079
12079
12086
12111
12125
12107
12043
12062
12052
12067
12080
12154
12199
12200
12209
12177
12177
12247
12244
12233
12251
12285
12286
12280
12281
12256
12240
12228
12191
12184
12205
12208
12184
12120
12131
12132
12114
12127
12173
12208
12206
12206
12162
12115
12152
12167
12147
12159
12186
12144
12174
12176
12191
12210
12226
12206
12178
12181
12187
12157
12086
12046
12065
12100
12092
12093
12172
12211
12222
12212
12191
12196
12208
12171
12154
12143
12182
12223
12225
12202
12191
12199
12251
12249
12242
12249
12234
12157
12067
12070
12076
12057
12028
12117
12124
12112
12126
12104
12094
12119
12135
12128
12208
12251
12248
12245
12233
12212
12204
12192
12195
12159
12170
12206
12198
12121
12111
12141
12119
12123
12187
12204
12204
12187
12177
12145
12182
12205
12175
12157
12174
12206
12245
12253
12222
12217
12205
12212
12207
12193
12205
12166
12147
12124
12143
12127
12094
12185
12209
12209
12212
12206
12115
12134
12196
12215
12173
12204
12165
12166
12171
12119
12070
12032
12033
12044
12076
12110
12104
12147
12076
12087
12128
12093
12129
12168
12170
12163
12171
12125
12128
12195
12240
12221
12265
12324
12333
12349
12366
12355
12333
12327
12287
12246
12210
12214
12165
12090
12071
12038
12038
12051
12085
12150
12155
12151
12015
11990
11974
11988
12016
12053
12202
12239
12235
12229
12231
12144
12153
12156
12147
12141
12188
12264
12229
12169
12148
12115
11991
11957
11925
11873
11864
11842
11800
11881
12020
12102
12143
12260
12306
12278
12314
12351
12370
12406
12372
12321
12265
12231
12254
12278
12266
12237
12249
12181
12185
12178
12174
12141
12179
12184
12164
12168
12148
12128
12123
12117
12178
12224
12242
12232
12244
12198
12158
12082
12007
12037
12117
12150
12076
12079
12120
12108
12164
12208
12254
12272
12270
12243
12223
12287
12301
12354
12358
12419
12438
12423
12412
12333
12295
12205
12103
12069
12154
12088
11910
11688
11617
11698
11798
11870
11947
12044
12123
12231
12245
12290
12319
12312
12351
12392
12381
12357
12387
12387
12361
12382
12380
12326
12229
12069
12040
12063
12113
12122
12178
12148
12147
12139
12124
12082
11968
11826
11722
11688
11757
11915
12080
12218
12299
12328
12374
12332
12260
12175
12105
12072
12074
12114
12138
12118
12054
12080
12054
12033
12134
12249
12294
12409
12378
12372
12365
12393
12403
12401
12464
12508
12483
12381
12142
11963
11844
11786
11785
11844
11915
11966
11975
11952
11957
12025
12052
12080
12139
12170
12218
12238
12207
12205
12220
12266
12258
12319
12322
12314
12317
12369
12330
12344
12386
12385
12238
12244
12266
12306
12338
12280
12131
11943
11726
11610
11613
11788
11908
11998
12036
12036
12085
12164
12238
12297
12269
12283
12264
12271
12281
12313
12318
12241
12240
12243
12190
12196
12188
12092
12111
12117
12143
12181
12250
12268
12243
12195
12186
12208
12226
12263
12352
12384
12384
12340
12296
12326
12284
12199
11937
11919
11982
12076
12127
12121
11903
11842
11877
11952
12055
12177
12202
12196
12158
12110
12134
12256
12258
12292
12320
12341
12267
12272
12244
12225
12246
12276
12245
12160
12043
12065
12222
12363
12377
12335
12260
12137
11902
11947
12031
12091
12106
12109
12140
12122
12119
12127
12093
12061
12093
12086
12057
12086
12149
12206
12217
12263
12328
12387
12288
12258
12256
12218
12220
12326
12354
12367
12394
12297
12205
12040
11985
11974
12051
12064
12017
12014
12082
12136
12229
12327
12327
12333
12322
12327
12301
12109
11965
11911
11807
11787
11946
11969
11964
11972
11975
11979
12103
12133
12176
12230
12298
12337
12331
12337
12318
12297
12318
12317
12312
12326
12329
12351
12377
12281
12262
12192
12122
12140
12226
12291
12314
12303
12223
12259
12317
12286
12160
12032
11865
11910
11953
12024
11985
11971
12063
12053
12059
12141
12282
12421
12403
12393
12437
12436
12505
12566
12565
12537
12473
12401
12059
11831
11638
11461
11312
11102
11174
11322
11560
11759
11877
11998
12057
12105
12199
12318
12367
12374
12339
12379
12357
12350
12419
12440
12433
12422
12414
12322
12322
12328
12337
12339
12431
12408
12328
12332
12336
12329
12311
12341
12302
12298
12312
12300
12317
12219
12143
12045
12016
12052
12092
12110
12124
12150
12046
12028
12013
12031
12040
12083
12090
12082
12123
12215
12241
12308
12343
12328
12328
12354
12460
12474
12383
12216
12128
11943
11830
11943
12012
11987
11931
11921
12038
12160
12216
12266
12297
12546
12575
12556
12552
12531
12440
12363
12224
12043
11948
11696
11676
11736
11736
11743
11727
11836
11870
11884
11820
11790
11722
11688
11765
11899
12107
12338
12738
12795
12814
12819
12848
12787
12765
12691
12592
12533
12470
12361
12264
12124
11978
11878
11687
11584
11479
11366
11275
11381
11428
11516
11642
11771
11867
12128
12282
12442
12583
12659
12557
12523
12479
12424
12364
12352
12414
12426
12406
12353
12359
12316
12190
12112
12061
11986
12120
12102
12058
12077
12153
12236
12331
12383
12379
12389
12353
12336
12311
12372
12423
12442
12417
12277
12222
12158
12068
11974
11999
12015
12034
12097
12151
12226
12234
12197
12161
12152
12141
12149
12220
12263
12286
12297
12273
12186
12140
12142
12210
12309
12495
12507
12515
12487
12435
12418
12343
12276
12187
12143
12160
12095
12054
12008
11998
11933
11573
11489
11401
11349
11286
11376
11425
11511
11617
11717
11786
11866
11911
11949
11952
11911
12072
12192
12317
12457
12595
12659
12660
12618
12524
12529
12556
12544
12521
12498
12416
12381
12407
12403
12416
12530
12645
12718
12851
12910
12908
12824
12713
12469
12400
12314
12278
12294
12303
12356
12333
12208
11993
11672
11163
10949
10821
10677
10602
10600
10854
11096
11343
11618
11889
12274
12390
12500
12585
12603
12538
12553
12518
12509
12531
12571
12598
12576
12561
12484
12473
12448
12424
12442
12439
12416
12426
12409
12336
12272
12221
12226
12137
12093
12110
12123
12123
12059
12108
12125
12146
12169
12237
12317
12346
12383
12345
12342
12349
12353
12347
12356
12303
12240
12190
12239
12234
12153
12071
11981
12005
12025
12029
11998
11874
11872
11873
11952
12001
12042
12159
12220
12211
12149
12105
12164
12154
12095
12039
12026
12011
11936
11894
11859
11787
11770
11795
11868
11970
12072
12180
12280
12310
12339
12385
12421
12478
12676
12765
12840
12880
12837
12707
12681
12651
12625
12670
12685
12706
12605
12467
12309
12199
11784
11546
11254
10980
10797
10718
10713
10748
10859
10922
11062
11463
11699
11940
12172
12402
12865
13015
13083
13085
13068
13040
12863
12795
12786
12749
12690
12604
12507
12438
12402
12347
12267
11933
11668
11451
11316
11262
11344
11441
11541
11699
11874
12036
12296
12394
12445
12493
12556
12573
12576
12548
12528
12523
12497
12453
12433
12408
12402
12397
12356
12308
12344
12396
12401
12341
12316
12284
12229
12160
12095
12126
12181
12184
12143
12088
11934
11833
11808
11823
11869
12049
12127
12132
12104
12139
12234
12281
12243
12166
12175
12161
12084
12118
12212
12238
12274
12293
12289
12390
12522
12596
12608
12571
12506
12461
12465
12411
12274
12191
12084
11971
11854
11761
11446
11316
11280
11265
11242
11190
11190
11253
11310
11331
11428
11907
12212
12610
12932
13207
13570
13594
13638
13636
13558
13441
13178
13095
13009
12903
12863
12677
12489
12200
11873
11609
10920
10491
10099
9739
9458
9303
9245
9336
9695
10231
10752
11641
12064
12452
12699
12859
12994
13263
13358
13400
13392
13333
13279
13236
13154
13075
12979
12896
12689
12604
12587
12613
12608
12566
12497
12426
12343
12310
11992
11905
11795
11744
11684
11719
11912
12001
12080
12105
12108
12097
12172
12212
12233
12221
12194
12131
12107
12159
12237
12306
12359
12331
12290
12256
12337
12460
12488
12493
12461
12387
12295
12168
12070
11987
11921
11876
11923
11999
12063
12095
12101
11991
11849
11813
11789
11828
11845
11849
11890
11903
11938
12023
12120
12299
12412
12465
12417
12378
12354
12294
12280
12270
12245
12206
12242
12297
12316
12320
12244
12112
12053
11996
12018
12035
12183
12400
12677
13012
13198
13230
13083
13032
13062
13007
12877
12590
12339
12126
11934
11713
11149
10854
10665
10551
10522
10560
10549
10645
10868
11205
11626
12485
12826
13089
13308
13492
13632
13724
13677
13631
13478
13376
13104
12903
12702
12454
12169
11770
10980
10533
9986
9353
8813
8460
8364
8394
8633
8976
9559
10308
11135
12459
12821
13089
13297
13465
13592
13742
13714
13681
13643
13571
13457
13399
13329
13241
13146
13084
13092
13090
13074
13028
12924
12833
12773
12740
12718
12668
12531
12471
12372
12322
12263
12215
12077
12045
11961
11936
11880
11633
11423
11258
11183
11224
11318
11412
11570
11814
12047
12122
12296
12353
12460
12538
12617
12684
12642
12577
12502
12464
12446
12490
12542
12581
12574
12504
12330
12178
11974
11765
11505
11307
11384
11539
11627
11674
11741
12027
12135
12212
12231
12222
12039
11926
11816
11759
11774
11795
11872
11925
12053
12126
12273
12576
12733
12859
12959
13004
13004
13037
12975
12909
12939
13009
12884
12792
12640
12522
12497
12198
11868
11502
11157
10918
10742
10666
10737
10961
11135
11311
11260
11169
11097
11033
11033
11102
11360
11636
11930
12208
12451
13074
13407
13566
13650
13710
13776
13769
13742
13642
13498
13385
13114
12971
12801
12636
12474
12242
12138
12023
11842
11645
11343
10447
10085
9877
9731
9573
9603
9717
10084
10751
11476
12847
13420
13816
14023
14047
13865
13758
13667
13531
13376
13273
13003
12823
12682
12638
12560
12262
12005
11764
11457
11078
10304
10033
9860
9864
10050
10370
10813
11214
11838
12073
12290
12463
12547
12663
12732
12771
12866
12947
12941
12867
12797
12671
12585
12585
12742
12837
12892
12919
12899
12747
12652
12576
12523
12506
12443
12394
12389
12390
12317
12221
12150
12178
12128
12042
12035
12049
11907
11766
11694
11647
11692
11702
11604
11501
11445
11511
11605
11600
11660
11721
11755
11829
12152
12242
12301
12418
12557
12894
13026
13129
13200
13238
13217
12992
12900
12825
12756
12696
12568
12441
12258
12086
11947
11476
11195
10953
10813
10581
10371
10296
10397
10541
10753
11035
11660
12037
12438
12770
13049
13280
13520
13576
13567
13460
13387
13326
13296
13235
13184
13230
13305
13161
12956
12782
12551
12232
11578
11250
10866
10475
10237
10359
10607
10963
11302
11519
11602
11371
11260
11191
11249
11382
11790
11953
12091
12165
12284
12435
12645
12789
12901
13065
13189
13152
13082
12955
12833
12726
12683
12692
12647
12581
12486
12379
12275
12260
12195
12128
12101
11920
11882
11809
11662
11473
11321
11283
11411
11574
11832
12088
12403
12495
12537
12597
12644
12687
12662
12685
12783
12932
13025
12881
12747
12703
12637
12604
12524
12529
12426
12299
12173
12160
12115
12019
11841
11587
11350
10898
10693
10621
10631
10662
10675
10767
10806
11016
11315
11606
12275
12621
12895
13130
13284
13459
13585
13683
13703
13587
13435
13146
13039
12999
12904
12826
12681
12529
12364
12163
11920
11607
10934
10615
10332
10209
10227
10594
10848
11099
11358
11597
12013
12221
12421
12577
12733
12820
12897
12923
12891
12837
12777
12669
12692
12704
12703
12711
12727
12689
12592
12511
12534
12486
12201
12094
11983
11865
11800
11857
11908
11986
12039
12043
12032
12097
12152
12227
12278
12191
12012
11919
11840
11883
11954
12039
12131
12127
12150
12248
12337
12299
12364
12432
12436
12459
12454
12407
12336
12277
12302
12368
12515
12574
12568
12485
12375
12311
12256
12216
12214
12303
12388
12241
12067
11846
11630
11367
10888
10690
10570
10454
10398
10431
10881
11184
11574
12052
12430
12795
12867
12918
12943
12967
12976
12989
12941
12941
12954
12909
12728
12641
12522
12395
12317
12231
12197
12186
12193
12206
12175
12072
12039
12064
12105
12132
12245
12349
12439
12492
12518
12528
12609
12560
12452
12368
12305
12200
12086
11892
11746
11621
11439
11443
11437
11461
11508
11522
11682
11843
11981
12038
12120
12415
12726
13202
13626
13932
14167
14251
14177
14075
13931
13824
13675
13570
13391
13058
12688
12371
11755
11367
11092
10762
10322
9045
8334
7726
7142
6693
6334
6209
6482
7184
8236
9469
10773
11933
12847
13414
14092
14309
14522
14630
14655
14594
14280
14184
14091
13950
13785
13523
13388
13323
13270
13211
13055
12865
12785
12672
12584
12527
12547
12529
12497
12474
12480
12365
12358
12411
12494
12548
12555
12275
12148
12038
11901
11849
11732
11671
11615
11612
11698
11796
11936
12086
12204
12278
12274
12245
12210
12150
12010
11966
11926
11947
11983
12015
12022
12039
11957
11919
11874
11819
11784
11869
11919
11935
11990
12124
12220
12402
12564
12765
12950
12943
12823
12723
12617
12449
12168
11923
11751
11686
11684
11663
11656
11722
11722
11746
11778
11765
11681
11693
11661
11649
11582
11543
11605
11907
12404
12830
13147
13469
13525
13525
13464
13294
13136
12815
12685
12560
12445
12295
12207
12171
12223
12277
12256
12110
11637
11355
11001
10619
10282
10027
10134
10400
10718
11094
11933
12298
12585
12794
12896
13045
13311
13285
13229
13225
13220
13309
13287
13193
13131
13108
13083
13093
13112
13001
12911
12746
12164
11816
11510
11216
11034
11132
11436
11978
12537
12921
13069
13003
12773
12382
11943
11440
10806
10632
10423
10311
10452
10749
11021
11141
11156
11095
10927
10704
10669
10647
10679
10862
11268
12114
12642
13200
13658
13886
13940
13962
13914
13872
13858
13695
13556
13362
13083
12845
12671
12274
12023
11733
11476
11258
10937
10898
10963
11037
11156
11291
11691
11906
12116
12385
12709
13079
13103
13108
13144
13252
13413
13224
12969
12688
12496
12381
12157
12075
12091
12129
12183
12429
12476
12529
12550
12588
12570
12487
12402
12322
12307
12244
11942
11870
11828
11750
11607
11480
11429
11379
11201
10908
10582
10265
10302
10413
10586
10908
11923
12368
12693
12940
13163
13392
13397
13390
13445
13507
13466
12908
12701
12528
12358
12210
12225
12499
12700
12686
12515
12305
12377
12496
12493
12476
12449
12299
12126
11954
11763
11607
11448
11305
11265
11216
11119
10955
10513
10371
10242
10189
10255
10399
10668
10857
11211
11710
12184
13057
13456
13627
13711
13726
13660
13676
13759
13753
13690
13662
13516
13445
13429
13596
13872
14050
13885
13662
13472
13444
13457
13475
13377
13080
12593
12036
11217
10860
10553
10333
10304
10298
10377
10364
10306
10197
10071
9843
9618
9388
9273
9253
9272
9332
9372
9600
10064
10676
11257
11788
12267
13299
13856
14240
14530
14708
14835
14877
14937
14797
14506
14016
13683
13298
12958
12592
12278
12178
12248
12331
12309
12178
11709
11644
11673
11795
11912
12044
12108
12096
12061
12004
12030
12267
12280
12243
12233
12225
12038
11821
11646
11585
11507
11450
11616
11768
12028
12315
12512
12420
12217
12121
12095
12097
12112
12272
12479
12619
12649
12723
13088
13065
12875
12634
12355
12061
11541
11331
11116
11047
11112
11303
11467
11720
11981
12183
12370
12537
12830
13107
13291
13304
13176
13119
13023
12887
12781
13001
13180
13231
13120
12962
12785
12363
12066
11746
11509
11281
10858
10674
10484
10325
10194
10108
10017
9962
10007
10038
10133
10354
10931
11228
11535
11809
12130
13054
13418
13624
13805
13872
13898
13976
14077
14128
14124
14044
13695
13436
13276
13185
13206
13205
13039
12871
12717
12563
12466
12379
12196
12109
12057
11947
11445
11191
10903
10728
10738
10857
11141
11244
11177
11220
11372
11797
11955
11966
11841
11629
11414
10723
10475
10462
10718
11150
12242
12681
13037
13241
13345
13301
13140
12833
12502
12327
12220
12148
12127
12227
12350
12406
12357
12263
12203
12244
12342
12528
12967
13000
12971
12971
12980
12744
12595
12607
12669
12679
12813
12894
12897
12786
12633
12522
12077
11776
11402
10943
10482
9927
9846
9939
10169
10539
10993
11418
11745
11926
11925
11978
12100
12360
12604
12960
13002
12895
12765
12713
12667
12569
12626
12682
12734
12795
13144
13310
13303
13219
13070
12635
12398
12167
11965
11863
11822
11871
11919
12006
12137
12264
12285
12158
12004
11844
11728
11528
11439
11386
11392
11431
11530
11810
12093
12387
12526
12654
12939
13006
13091
13096
12990
12784
12345
12119
11871
11610
11507
11533
11462
11353
11285
11285
11587
11733
11862
12121
12219
12278
12498
12612
12743
12921
13080
13249
13414
13528
13456
13315
13252
13065
12849
12589
12254
11766
10318
9662
9138
8779
8716
8994
9398
9833
10326
10901
11472
11872
12279
12439
12653
12873
13092
13306
13383
13514
13672
13743
13708
13433
13288
13102
12880
12656
12297
12156
12010
11814
11624
11528
11733
11894
12035
12159
12213
12330
12457
12512
12595
12706
13013
13053
13010
12940
12866
12778
12533
12363
12134
11815
11527
11295
11255
11147
11104
11173
11346
11869
12078
12155
12205
12258
12155
12247
12358
12442
12511
12631
12680
12743
12809
12878
12973
12744
12488
12278
12065
11767
11316
11144
11060
11092
11189
11304
11629
11704
11751
11882
12118
12438
12624
12831
12967
13008
13094
13326
13387
13397
13284
13134
12907
12708
12460
12165
11821
11228
10948
10722
10532
10395
10236
10197
10462
10871
11356
11979
12864
13034
13130
13098
12942
12763
12481
12442
12473
12581
12680
12696
12550
12350
12195
11999
11605
11443
11328
11223
11114
11061
11616
12102
12447
12673
12866
13256
13380
13429
13391
13238
13053
13011
13094
13146
13123
13136
13013
12836
12586
12411
12217
11685
11366
11148
11025
10952
11029
11314
11393
11486
11506
11384
11236
11286
11324
11375
11467
11669
12157
12369
12570
12723
12768
12834
12703
12351
11983
11741
11597
11717
11947
12179
12364
12466
12447
12472
12505
12531
12542
12560
12526
12453
12316
12129
11954
11645
11578
11542
11620
11817
12482
12739
12916
12965
12943
12827
12458
12231
12018
11842
11729
11500
11417
11400
11432
11571
12254
12532
12651
12724
12778
12742
12608
12621
12686
12747
12787
12899
12837
12736
12623
12555
12551
12362
12255
12186
12063
11903
11365
11105
10949
10841
10888
11077
11989
12455
12755
12792
12685
12301
12203
12188
12307
12475
12357
12125
11937
11807
11766
11846
12068
12136
12240
12309
12350
12367
12265
12224
12179
11979
11732
11479
11489
11524
11532
11682
12420
12598
12691
12734
12820
12979
13002
12944
12834
12666
12564
12406
12313
12315
12380
12425
12467
12478
12429
12371
12210
11977
11523
11466
11326
11079
10779
10355
10272
10201
10169
10368
11380
12050
12727
13387
13809
13899
13582
13312
13013
12862
12665
12340
12247
12188
12120
12106
12149
12078
12167
12305
12323
12264
12100
11983
11917
11971
12043
12122
12218
12279
12351
12383
12345
12358
12331
12299
12291
12301
12378
12446
12488
12540
12568
12519
12169
11922
11706
11498
11438
11480
11560
11615
11702
11814
11961
12245
12299
12304
12343
12381
12450
12479
12374
12239
12179
12305
12403
12498
12512
12448
12395
12425
12428
12424
12374
12407
12344
12139
12013
11984
11961
11950
12052
12186
12287
12305
12257
12154
12079
11890
11626
11441
11402
11465
11666
11773
11900
12088
12422
12486
12511
12469
12415
12272
12257
12294
12346
12280
12255
12080
12060
12084
12063
12076
12068
12150
12211
12321
12507
12710
12710
12571
12346
12073
11844
11610
11653
11760
11864
11869
11978
12101
12174
12273
12374
12433
12306
12265
12267
12325
12476
12735
12818
12828
12803
12705
12601
12407
12256
12209
12257
12386
12574
12565
12374
12148
11858
11604
11183
11064
11013
10955
10922
11113
11266
11575
11930
12163
12307
12322
12342
12299
12236
12056
11793
11786
11902
12014
12094
12214
12347
12486
12555
12644
12642
12668
12719
12805
12934
13116
13290
13298
13280
13222
13087
12780
12600
12529
12414
12307
12257
12116
11973
11780
11459
11164
10928
10912
10934
11026
11124
11148
11263
11443
11614
11814
11986
12197
12202
12208
12246
12303
12402
12405
12454
12543
12539
12478
12282
12221
12177
12101
12069
12324
12521
12670
12737
12781
12808
12739
12639
12553
12467
12393
12558
12684
12765
12741
12745
12730
12644
12651
12523
12273
11969
11540
11479
11445
11383
11307
11352
11370
11371
11263
11024
10852
10718
10918
11209
11573
11997
12564
12763
12890
12919
12878
12830
12648
12558
12605
12759
12980
13232
13311
13240
13042
12787
12200
11912
11640
11415
11322
11416
11753
11935
12021
12100
12171
12032
11858
11740
11793
11961
12087
12221
12297
12470
12738
12972
13173
13171
13068
12923
12755
12565
12171
12055
11923
11784
11650
11550
11433
11204
10978
10824
10587
10636
10887
11293
11785
12251
12900
13089
13173
13252
13300
13305
13284
13266
13197
13133
13138
12614
12161
11697
11231
10938
10856
10785
10718
10730
10779
11313
11699
12033
12260
12500
12726
12913
12735
12492
12321
12290
12429
12557
12738
12841
12779
12626
12635
12656
12680
12652
12652
12604
12409
12168
11949
11884
11902
11836
11802
11888
11920
11968
12097
12153
12107
11932
11819
11765
11767
11783
11912
12083
12215
12387
12432
12535
12654
12718
12767
12694
12582
12491
12432
12368
12089
11928
11750
11549
11405
11359
11458
11707
11957
12159
12388
12479
12651
12886
12990
13008
12825
12642
12490
12450
12370
11971
11689
11505
11492
11586
11615
11592
11582
11443
11295
11219
11340
11562
11800
11962
12164
12612
12717
12789
12817
12824
12784
12522
12316
12144
11980
11920
12070
12201
12335
12438
12433
12346
12129
12120
12151
12097
11968
11819
11910
12087
12149
12187
12193
12148
12072
12049
12094
12202
12510
12666
12724
12704
12618
12630
12701
12658
12456
12220
12083
12033
12026
12013
11991
11950
11697
11595
11594
11619
11605
11559
11716
11723
11724
11884
12101
12406
12429
12433
12427
12371
12188
12197
12415
12565
12590
12596
12676
12618
12560
12474
12404
12359
12390
12393
12336
12297
12231
12124
12064
11917
11722
11727
11951
12098
12133
12037
11907
11841
11840
11940
12068
12091
12190
12402
12427
12400
12323
12253
12150
12188
12237
12271
12281
12317
12295
12281
12251
12263
12292
12201
12159
12166
12160
12211
12361
12666
12648
12646
12660
12709
12644
12601
12590
12516
12432
12095
11729
11320
11043
10987
11113
11434
11507
11409
11189
11094
11203
11249
11339
11442
11573
11793
12458
12691
12909
13073
13128
13124
13137
13097
13022
12892
12749
12474
12306
12131
11994
11883
11648
11633
11555
11448
11548
11946
12111
12171
12196
12201
12275
12546
12673
12705
12725
12698
12677
12599
12562
12543
12533
12503
12337
12205
12026
11854
11745
11628
11626
11679
11752
11788
11992
12037
12092
12026
11880
11765
11641
11681
11839
12079
12240
12533
12566
12615
12570
12564
12563
12514
12476
12431
12373
12288
11976
11822
11764
11832
11978
12266
12344
12452
12504
12483
12372
12215
12243
12243
12240
12318
12331
12169
12004
11899
11917
12074
12271
12295
12304
12314
12312
12278
12217
12147
12091
11900
11664
11393
11436
11605
11805
11997
12276
12405
12469
12463
12497
12656
12669
12624
12580
12472
12346
12067
11833
11687
11734
11932
12366
12441
12303
12035
11771
11552
11452
11526
11648
11808
11961
12201
12314
12404
12430
12438
12461
12467
12394
12285
12238
12233
12317
12378
12385
12332
12308
12279
12270
12242
12254
12234
12205
12194
12239
12285
12301
12297
12269
12244
12338
12353
12273
12243
12240
12206
12132
12139
12131
11956
11910
11903
11926
11915
11843
11831
11858
11882
11943
11986
12146
12215
12146
11992
11773
11726
11905
12127
12275
12282
12296
12434
12462
12477
12503
12575
12550
12513
12496
12414
12350
12114
11983
11904
11810
11773
11785
11864
12003
12179
12296
12361
12327
12326
12360
12362
12315
12222
12174
12195
12235
12230
12247
12212
12255
12233
12208
12181
12129
12091
12085
12073
12049
12096
12127
12076
12053
11994
11950
11944
11914
11933
12016
12148
12248
12364
12418
12452
12432
12402
12332
12379
12392
12324
12173
12036
12086
12176
12203
12147
12122
12178
12201
12253
12239
12196
12052
11917
11877
11946
12023
12036
12076
12060
12010
11963
11910
11920
12040
12170
12252
12264
12255
12249
12314
12334
12285
12242
12301
12281
12303
12355
12392
12426
12413
12430
12439
12388
12305
12188
12198
12234
12288
12221
11791
11521
11368
11424
11591
11733
12070
12190
12215
12243
12205
12191
12175
12204
12238
12272
12293
12315
12246
12234
12263
12245
12195
12230
12257
12305
12293
12274
12253
12221
12234
12214
12153
12184
12226
12228
12206
12152
12145
12151
12149
12168
12238
12231
12262
12242
12195
12155
12152
12220
12218
12251
12265
12264
12192
12154
12123
12110
12119
12120
12129
12130
12160
12186
12176
12134
12146
12152
12119
12116
12157
12263
12333
12351
12350
12328
12173
12090
12092
12105
12070
11825
11777
11844
12005
12150
12264
12261
12190
12164
12153
12138
11996
11982
11980
12006
11941
11838
11711
11816
11954
12071
12200
12404
12436
12476
12525
12538
12544
12456
12465
12451
12419
12406
12335
12268
12233
12171
12056
11848
11869
11881
11852
11839
11930
12015
11974
11993
12076
12129
12247
12296
12262
12300
12305
12321
12322
12284
12301
12318
12339
12293
12250
12289
12335
12315
12166
12137
12155
12156
12112
12115
12065
12039
12039
12010
12065
12118
12065
12053
12067
12091
12114
12132
12135
12126
12118
12188
12223
12226
12235
12239
12222
12237
12138
12132
12084
12092
12095
12185
12201
12218
12218
12164
12151
12158
12199
12252
12285
12274
12267
12259
12242
12259
12282
12273
12191
12132
12105
12160
12177
12140
12109
12112
12120
12161
12234
12229
12230
12210
12176
12119
12111
12045
12016
12111
12124
12202
12221
12225
12163
11994
11609
11619
11736
11917
12119
12251
12246
12128
12106
12084
12090
12179
12175
12203
12225
12243
12208
12261
12313
12362
12396
12462
12506
12498
12526
12534
12506
12479
12462
12442
12485
12505
12404
12127
11926
11745
11560
11332
11017
10999
11143
11351
11635
11894
12249
12369
12419
12439
12505
12476
12490
12475
12476
12457
12517
12491
12415
12372
12363
12382
12339
12256
12166
12124
12106
12052
12031
12004
11978
11964
11957
11918
12018
12098
12147
12234
12237
12235
12240
12251
12277
12218
12172
12107
12057
12050
12059
12203
12260
12206
12186
12179
12212
12260
12317
12317
12311
12308
12265
12201
12201
12242
12277
12192
12047
11953
11946
11965
12021
12178
12219
12235
12158
12072
12118
12201
12195
12142
12140
12117
12157
12187
12174
12187
12212
12163
12174
12213
12170
12141
12200
12220
12201
12203
12233
12270
12334
12312
12302
12254
12199
12162
12155
12203
12195
12227
12174
12169
12194
12245
12283
12312
12330
12291
12240
12102
11881
11618
11591
11734
11947
12129
12306
12388
12323
12217
12082
11961
11899
11896
11878
11910
11994
12072
12158
12203
12203
12142
12122
12187
12209
12227
12292
12372
12425
12507
12465
12435
12429
12441
12440
12461
12528
12491
12456
12351
12226
12083
11982
11871
11784
11837
11905
12031
12129
12131
11965
11804
11767
11828
11923
12010
12098
12145
12228
12336
12452
12565
12625
12648
12576
12433
12188
12092
12028
11994
11882
11760
11677
11671
11781
11984
12140
12331
12329
12315
12391
12424
12414
12300
12244
12156
12122
12139
12162
12136
12144
12134
12146
12232
12293
12321
12278
12179
12101
11871
11762
11771
11991
12188
12341
12307
12212
12083
12043
12083
12161
12203
12208
12300
12393
12454
12425
12382
12343
12311
12332
12383
12450
12484
12423
12244
12010
11926
11963
12106
12226
12352
12356
12292
12184
12109
12006
11712
11673
11603
11586
11602
11399
11441
11617
11820
11981
12244
12327
12448
12522
12540
12528
12495
12470
12422
12378
12391
12398
12403
12384
12320
12244
12215
12055
11925
11899
11906
11970
12213
12231
12240
12273
12310
12324
12251
12282
12322
12346
12329
12254
12240
12195
12178
12255
12287
12277
12265
12228
12182
12129
12102
12091
12164
12256
12327
12392
12396
12398
12358
12336
12315
12237
12191
12076
11918
11758
11532
11442
11429
11468
11541
11570
11560
11589
11647
11692
11839
12234
12391
12549
12628
12646
12725
12749
12717
12659
12568
12462
12157
12118
12132
12178
12179
12129
12134
12141
12145
12203
12284
12416
12436
12399
12337
12292
12237
12145
12041
12021
12064
12120
12093
12122
12133
12115
12060
12060
12112
12203
12239
12219
12131
12056
11974
11928
12050
12222
12474
12493
12557
12533
12532
12620
12547
12335
12094
11882
11660
11715
11807
11939
12041
12054
12084
12057
12031
11999
11971
11906
11800
11660
11582
11564
11670
12034
12157
12278
12381
12429
12483
12468
12466
12527
12580
12583
12665
12728
12762
12720
12664
12445
12256
12067
11895
11780
11646
11648
11644
11549
11456
11365
11356
11484
11693
11928
12134
12311
12395
12453
12462
12445
12464
12462
12426
12449
12473
12515
12771
12830
12870
12857
12843
12724
12644
12551
12445
12384
12298
12283
12266
12260
12170
11976
11466
11261
11129
11079
11074
11109
11224
11332
11440
11628
11801
12170
12304
12414
12490
12549
12608
12579
12488
12416
12436
12448
12439
12470
12514
12505
12485
12373
12320
12304
12283
12279
12288
12357
12364
12296
12234
12197
12138
12136
12166
12153
12132
12133
12157
12110
12002
12003
12020
12129
12195
12278
12320
12310
12228
12153
12140
12164
12099
12028
12013
12050
12089
12182
12285
12273
12250
12168
12010
11839
11759
11765
11794
11765
11803
11910
11978
12001
12064
12145
12216
12348
12379
12426
12472
12483
12480
12501
12516
12558
12627
12674
12653
12778
12888
12872
12675
12421
12079
11990
11975
12020
12108
12162
12192
12218
12146
12020
11821
11450
11429
11488
11564
11699
11877
11913
11923
11933
11963
12118
12210
12291
12296
12224
12192
12175
12149
12110
12069
12084
11974
11831
11714
11595
11519
11473
11612
11897
12264
12519
12643
12762
12799
12759
12677
12601
12500
12432
12376
12264
12152
12065
11978
11930
11818
11645
11512
11451
11482
11578
11659
11812
12024
12431
12512
12563
12616
12654
12629
12644
12622
12618
12604
12555
12500
12512
12492
12479
12437
12421
12389
12369
12353
12283
12261
12333
12397
12427
12424
12400
12290
12195
12094
12004
11992
11905
11944
11944
11951
11848
11701
11651
11690
11740
11804
11854
11968
12046
12125
12145
12120
12096
12115
12185
12227
12351
12392
12468
12513
12533
12594
12714
12839
12818
12779
12637
12534
12445
12322
12308
12301
12304
12324
12211
12133
12005
11765
11492
11036
11011
11014
10995
10943
10964
11282
11524
11755
11983
12219
12416
12391
12427
12463
12459
12460
12549
12615
12614
12657
12672
12676
12641
12656
12672
12714
12736
12881
12910
12862
12843
12851
12673
12587
12483
12375
12352
12238
12074
11822
11500
11193
10961
10722
10653
10693
10801
10911
11276
11619
11978
12267
12417
12487
12620
12731
12786
12851
12907
12943
12980
12978
12822
12591
12250
12077
11932
11897
11926
11965
12035
12076
12094
12150
12198
12168
12052
11911
11788
11638
11538
11362
11313
11282
11345
11475
11733
11816
11903
11990
12078
12355
12535
12684
12789
12911
13030
13078
13068
12996
12953
12914
12841
12824
12817
12841
12753
12649
12398
12250
12145
12025
11907
11936
11960
11969
11971
11981
12045
12139
12067
11871
11685
11546
11597
11581
11598
11631
11676
11690
11680
11754
11834
11862
11921
12072
12181
12300
12380
12436
12431
12448
12481
12562
12589
12536
12560
12637
12704
12761
12717
12471
12348
12222
12137
12065
12023
12019
11974
11907
11873
11864
12223
12595
12881
12929
12821
12636
12587
12566
12553
12471
12401
12311
12276
12259
12290
12344
11988
11621
11302
11087
10944
10866
10874
10851
10872
11074
11501
12533
12775
12962
13112
13194
13191
13204
13223
13234
13216
13125
12657
12497
12194
11718
11191
10288
10055
9936
9997
10178
10423
10673
11078
11153
11210
11311
11503
11725
11954
12011
12096
12250
12424
12771
12924
13066
13244
13386
13497
13605
13612
13542
13478
13402
13222
13120
13014
12936
12848
12759
12667
12647
12619
12544
12352
11859
11728
11675
11587
11518
11595
11695
11843
11954
12033
12080
12093
12148
12169
12138
12005
11612
11400
11223
11149
11305
11531
11965
12180
12323
12458
12533
12470
12453
12489
12540
12611
12825
12900
12932
12934
12875
12753
12549
12451
12338
12250
12246
12366
12361
12288
12132
11956
11769
11410
11245
11122
11116
11134
11086
11061
11158
11343
11607
12118
12358
12572
12775
12940
13006
13047
13067
13081
13095
13153
13224
13166
13277
13307
13182
13011
12626
12374
12087
11805
11588
11181
11017
10840
10736
10801
10968
11307
11452
11578
11706
11664
11477
11518
11543
11587
11823
12442
12654
12799
12848
12726
12618
12574
12634
12653
12591
12445
12049
11857
11628
11425
11379
11401
11733
11950
12003
11934
11959
11891
11860
11933
12064
12187
12452
12415
12376
12348
12339
12350
12490
12602
12688
12697
12675
12506
12372
12176
11960
11798
11620
11543
11618
11711
11889
12053
12344
12490
12682
12819
12846
12854
12868
12981
13012
12987
12915
12803
12747
12686
12625
12593
12510
12463
12371
12230
12137
12004
11485
11343
11197
11010
10857
10666
10775
11004
11285
11582
11846
12310
12448
12548
12662
12697
12728
12742
12768
12768
12738
12733
12661
12620
12524
12469
12464
12444
12498
12683
12780
12767
12625
12510
12402
12386
12366
12303
12279
12273
12321
12346
12448
12331
12082
11826
11568
11293
11040
10554
10432
10451
10471
10555
10821
11155
11579
11958
12349
13467
13730
13812
13814
13797
13855
13972
13884
13790
13679
13516
13051
12805
12528
12148
11676
11111
9874
9362
8822
8283
7996
8035
8283
8785
9404
10013
10488
10840
11247
12346
13017
13662
14091
14305
14390
14416
14426
14361
14232
14034
13850
13811
13756
13639
13527
13247
13107
12905
12695
12516
12361
11861
11533
11155
10767
10399
10150
10355
10737
11166
11561
11861
12253
12389
12527
12632
12620
12169
11890
11626
11454
11402
11445
11751
11905
12031
12203
12402
12654
12782
12859
12878
12836
12717
12678
12684
12756
12800
12754
12599
12553
12512
12509
12567
12692
12786
12804
12734
12613
12491
12271
12125
11925
11736
11709
11864
11994
12069
12021
11848
11363
11171
11038
10979
11014
11060
11363
11561
11850
12335
12733
13074
13161
13270
13292
13169
13031
12837
12710
12601
12488
12435
12400
12418
12537
12515
12270
11939
11291
10993
10713
10489
10444
10800
11263
11738
12115
12418
12461
12325
12180
12084
12044
12051
12082
12029
12009
12035
12156
12475
12547
12683
12849
12947
13004
12927
13024
13120
13125
13037
12972
12976
12846
12631
12347
11585
11113
10668
10288
10023
9934
9963
10064
10498
10847
11077
11306
11516
11861
12115
12362
12574
12829
13109
13596
13760
13864
13870
13875
13930
13858
13774
13652
13544
13256
13143
13053
12889
12678
12499
12140
11847
11473
11074
10737
10116
9909
9782
9762
9865
10078
10337
10556
10808
11237
11443
11719
11979
12194
12348
12754
12935
13168
13342
13415
13413
13348
13265
13189
13138
13145
13125
13079
13046
13012
12988
12899
12824
12749
12685
12626
12422
12255
12055
11872
11634
11449
11305
11343
11345
11381
11445
11417
11309
11291
11333
11308
11298
11531
11746
12027
12224
12294
12421
12473
12581
12817
13022
13423
13557
13604
13668
13809
13933
13970
13776
13431
13081
12662
11832
11402
11088
10933
10947
10999
10856
10772
10588
10294
9992
9760
9675
9662
9636
9679
9823
10518
10979
11461
11937
12471
12907
13663
14031
14252
14335
14321
14426
14324
14139
13948
13816
13691
13642
13753
13865
13746
13468
12651
12132
11608
11129
10684
10312
10004
9985
9924
9913
9980
10040
10114
10128
10093
10026
10102
10318
10709
11194
12209
12673
13080
13373
13523
13709
13658
13603
13570
13579
13619
13815
14022
14277
14409
14427
14248
14182
14057
13815
13523
13222
12644
12295
11987
11642
11339
11006
10839
10576
10247
9905
9597
9293
9129
9146
9263
9500
9802
10142
11040
11539
11971
12397
12747
13230
13475
13602
13692
13721
13663
13487
13364
13250
13151
13069
13009
13015
12988
12915
12831
12810
12847
12851
12831
12712
12529
12300
12213
12037
11775
11458
10863
10726
10651
10676
10860
11053
11287
11441
11618
11750
11906
12163
12261
12279
12281
12329
12882
13162
13326
13440
13544
13605
13643
13501
13380
13247
13121
12892
12877
12850
12785
12755
12528
11540
11083
10628
10176
9789
9637
9705
9842
10001
10237
10580
11076
11426
11702
12369
12607
12729
12768
12785
12769
12865
12912
12852
12742
12654
12459
12357
12330
12324
12193
11920
11858
12159
12648
13101
13380
13595
13572
13545
13492
13377
12847
12453
11985
11479
11006
10529
9983
9951
10055
10262
10530
10803
11066
11488
11783
12116
12311
12455
12600
12613
12615
12645
12704
12753
12669
12567
12499
12457
12376
12357
12606
13018
13274
13347
13378
13372
13247
13064
12915
12784
12737
12762
12720
12668
12640
12647
12378
12168
11871
11494
11057
10267
9970
9827
9854
10075
10479
10865
11198
11867
12114
12280
12427
12556
12707
12845
12838
12950
13049
13096
13324
13377
13420
13358
13218
13199
13261
13272
13254
13150
13041
12847
12755
12600
12478
12331
12101
11959
11824
11691
11537
11403
11123
10941
10723
10492
10184
9774
9676
9693
9808
9943
10138
10329
10547
10795
11099
11870
12240
12688
13220
13719
14645
14929
14941
14773
14469
14143
13744
13608
13518
13412
13180
12992
12915
12755
12539
12348
12121
11534
11347
11285
11228
11168
11013
10995
11056
11145
11289
11405
11553
11697
11784
11823
11793
11458
11248
10992
10773
10660
10603
10754
11045
11379
11643
11941
12526
12755
13103
13410
13559
13678
13700
13849
13983
13918
13755
13565
13485
13337
13101
12781
12180
11887
11666
11506
11467
11446
11425
11507
11607
11646
11700
11824
11786
11887
12092
12252
12475
12378
12348
12415
12420
12364
12145
12194
12348
12505
12538
12483
12469
12463
12447
12353
12016
11866
11685
11637
11687
11705
11813
11835
11846
11863
11841
11691
11646
11674
11774
11737
11649
11594
11541
11548
11686
11911
12352
12532
12771
13079
13490
13859
13941
13884
13890
13780
13648
13389
13296
13208
13084
12845
11951
11501
11043
10739
10502
10383
10506
10696
10882
10973
10925
10726
10668
10593
10524
10582
10858
11930
12567
13274
13899
14408
14694
14497
14129
13678
13217
12285
11909
11532
11190
10941
10765
10765
11011
11307
11644
11910
12191
12210
12122
11901
11629
11464
11326
11402
11695
12065
12484
12992
13026
12839
12544
12295
11792
11506
11306
11236
11447
11872
12754
13218
13567
13922
14196
14337
14278
14133
13859
13616
13488
13174
13013
12878
12689
12427
11731
11341
10897
10487
10065
9611
8904
8824
8891
9189
9782
10490
11238
11868
12313
12479
12608
12727
12839
12999
13112
13239
13394
13492
13638
13697
13646
13649
13657
13599
13452
13297
13162
12657
12333
12102
11885
11648
11338
11208
11165
11245
11502
11740
11957
12031
12088
12118
12191
12191
12160
12194
12335
12534
12901
12968
13001
13018
12922
12798
12353
12072
11777
11317
10704
9650
9518
9649
9912
10453
11032
11432
11615
11704
11869
12074
12375
12744
13072
13360
13829
13996
14009
13747
13467
13120
12971
12748
12446
12319
12379
11867
11429
11224
11217
11273
11403
11295
11215
11143
11118
11333
11470
11671
11958
12227
12453
12273
12123
12046
12082
12134
12360
12368
12402
12341
12397
12513
12612
12528
12451
12467
12445
12764
13037
13207
13291
13345
13056
12757
12515
12420
12365
12403
12559
12566
12501
12347
12107
11578
11373
11183
11166
11317
11582
12096
12345
12512
12517
12350
12070
11975
11805
11642
11548
11459
11283
11337
11458
11532
11566
11712
11621
11498
11571
11760
11843
11865
11923
12055
12117
12174
12409
12526
12523
12523
12568
12649
12749
13014
13376
13649
13745
13246
12832
12567
12471
12385
12381
12361
12375
12304
12254
12016
11860
11733
11654
11645
11716
11697
11678
11536
11389
11348
11857
12258
12720
13334
13828
14059
13882
13600
13245
12755
12198
11202
10934
10794
10836
10938
10897
10698
10654
10714
10834
10943
11087
11164
11207
11261
11562
12288
12478
12677
12912
13177
13355
13523
13553
13530
13520
13536
13383
13266
13058
12783
12426
12161
12131
12307
12493
12537
12412
12129
12017
11949
11874
11735
11742
11807
11658
11443
11224
11074
11117
11267
11470
11785
12250
13206
13451
13464
13313
13027
12675
12006
11783
11627
11413
11240
11037
11036
11122
11172
11223
11633
11868
12130
12332
12447
12555
13018
13213
13262
13205
12992
12400
12064
11805
11658
11659
11816
12097
12179
12288
12337
12321
12309
12283
12129
11906
11658
11474
11675
11825
11932
12042
12060
11895
11806
11721
11618
11539
11793
12050
12287
12454
12657
12887
13329
13462
13549
13578
13545
13525
13624
13734
13667
13434
13047
12381
12108
11875
11688
11504
11076
10856
10563
10351
10277
10198
10290
10536
10777
10992
11139
11283
11457
11881
12460
12951
13352
13486
13544
13496
13415
13281
13166
13130
13072
12993
12935
12881
12910
12881
12735
12601
12436
12284
12149
12193
12243
12183
11871
11879
12054
12274
12340
12045
11822
11584
11381
11247
11200
11139
11124
11112
11252
11543
11870
11875
11762
11669
11651
11726
12007
12007
11994
11982
12006
12117
12198
12198
12166
12103
11768
11758
11819
11854
11976
12169
12629
13111
13476
13702
13826
13966
13935
13783
13573
13298
12986
12267
11848
11476
11252
11157
11175
11355
11445
11388
11193
10598
10512
10724
11112
11563
11986
12425
12531
12551
12545
12617
12741
12757
12757
12678
12468
12272
12274
12284
12262
12244
12204
12187
12221
12297
12357
12435
12540
12518
12404
12385
12449
12545
12702
12766
12754
12637
12520
12384
12355
12326
12338
12375
12491
12628
12469
12319
12202
12188
11972
11753
11543
11351
11159
11017
10975
10966
10960
10948
11014
11073
10957
10994
11204
11461
12187
12503
12628
12630
12543
12426
12209
12164
12210
12322
12582
13182
13525
13781
13875
13949
13999
13759
13473
13128
12813
12587
12254
12095
11992
11928
11961
11952
11319
10816
10250
9705
9297
9144
9301
9618
9937
10245
11396
12044
12544
12905
13156
13330
13568
13637
13639
13636
13692
13692
13637
13519
13356
13258
13155
12856
12718
12677
12579
12485
12228
12087
11965
11856
11700
11365
11263
11221
11243
11431
11637
12073
12277
12474
12642
12762
13045
13029
12887
12626
12292
12060
11918
11832
11822
11875
11903
11751
11344
10991
10680
10393
10150
10319
10486
10621
10819
11148
11995
12479
12917
13281
13498
13708
13708
13576
13360
13142
12998
12847
12777
12699
12609
12571
12471
12391
12331
12286
12226
12093
11664
11403
11219
11238
11469
11970
12151
12210
12121
12044
12199
12400
12638
12865
12913
12905
12755
12534
12354
12200
12000
11329
10799
10145
9667
9528
9776
10308
10949
12254
12887
13390
13628
13623
13513
13232
13181
13135
13037
12951
12666
12452
12322
12313
12307
12311
12360
12320
12310
12403
12539
12550
12445
12290
12123
11958
11864
11536
11535
11685
11892
12096
12416
12564
12576
12490
12368
12122
11836
11401
11114
10990
11022
11475
11863
12211
12377
12437
12174
11979
11862
11818
11844
12029
12510
12725
12843
12904
12897
12771
12637
12481
12360
12265
12163
12191
12208
12153
12079
11995
11915
11915
11922
11941
11908
11766
11872
11975
11974
11913
11855
11898
12012
12238
12523
12815
13099
13194
13236
13217
13197
13127
13052
12949
12879
12807
12693
12125
11790
11412
11052
10703
10149
10188
10498
10846
11134
11449
11968
12067
12022
12020
12024
11938
11982
12065
12221
12436
12601
12408
12204
11986
11844
11837
12077
12249
12519
12734
12911
13449
13739
13875
13927
13876
13715
13285
12929
12514
12083
11714
11063
10998
10924
10834
10824
10968
11149
11150
11165
11133
11276
11496
11513
11582
11741
11946
12129
12200
12340
12505
12642
12744
12905
12986
13161
13317
13412
13371
13309
13264
13298
13489
13650
13512
13306
13052
12768
12455
11577
11122
10813
10569
10429
10540
11001
11028
11008
10999
11010
10961
11144
11407
11753
12010
12147
12245
12304
12284
12162
11960
11764
11862
11996
12001
11979
12334
12485
12607
12802
12948
12947
12846
12903
12979
13035
13096
13027
12964
12939
12935
12961
12851
12677
12428
12134
11863
11760
11805
11916
11993
11996
11896
11472
11215
11019
10832
10716
10753
11229
11453
11659
11868
12164
12701
12902
13096
13183
13203
13156
13167
13053
12806
12582
12413
12138
12004
11833
11653
11522
11303
11317
11336
11356
11462
11691
12241
12364
12445
12477
12455
12517
12539
12636
12702
12820
12826
12519
12307
12157
12043
11946
11839
11900
12021
12191
12232
11913
11820
11669
11627
11676
11798
12066
12208
12357
12468
12511
12510
12420
12334
12260
12123
12017
11635
11529
11500
11582
11833
12241
12425
12552
12637
12697
12657
12631
12585
12615
12711
12717
12554
12459
12345
12269
12168
12119
12100
12043
12043
11984
11952
11903
11915
11835
11733
11656
11781
11955
12164
12352
12479
12520
12448
12432
12370
12456
12608
12776
12763
12670
12497
12384
12402
12412
12298
12185
12095
11938
11475
11255
11044
10842
10685
10684
10871
10973
11138
11409
11694
12163
12328
12462
12559
12705
12997
13016
12994
12964
13001
13089
13114
13108
13073
13112
13129
13082
12926
12633
12326
12036
11450
11292
11311
11392
11424
11455
11473
11535
11646
11716
11739
11697
11591
11463
11340
11280
11409
11970
12278
12567
12826
12959
12701
12524
12412
12416
12449
12491
12390
12239
12108
12097
12161
12162
12237
12386
12486
12579
12671
12588
12444
12334
12269
12213
12246
12277
12235
12194
12256
12375
12388
12352
12247
12148
11925
11879
11876
11954
12006
12008
11959
11921
11907
11888
11789
11797
11976
12095
12176
12212
12206
12155
12122
12123
12165
12293
12551
12645
12687
12678
12587
12471
12312
12229
12214
12262
12274
12141
11970
11822
11782
11743
11732
11646
11568
11558
11660
11796
12210
12404
12500
12486
12386
12190
12188
12222
12328
12484
12590
12659
12669
12522
12293
12152
12043
12031
12028
12090
12161
12200
12304
12324
12234
12129
11979
11553
11379
11273
11248
11385
12077
12289
12455
12591
12688
12766
12667
12416
12326
12388
12451
12212
12120
12050
12039
12090
12085
12026
12062
12079
11996
11890
11688
11713
11914
12131
12281
12424
12422
12374
12227
12204
12187
12236
12196
12266
12289
12324
12475
12422
12390
12322
12353
12413
12304
12306
12316
12242
12189
12083
11955
11840
11766
11681
11724
11905
12030
12122
12214
12286
12297
12260
12173
12085
12013
12059
12168
12251
12213
12152
12124
12093
12098
12191
12302
12386
12379
12350
12364
12428
12497
12433
12384
12335
12260
12142
12045
11800
11792
11753
11771
11857
12029
12046
11991
11929
11917
12024
12152
12275
12403
12477
12499
12532
12493
12451
12466
12466
12428
12256
12195
12141
12067
12057
12056
12051
12058
12019
12033
12127
12119
12064
12006
11914
11789
11632
11723
11924
12204
12435
12521
12418
12274
12176
12114
12087
12073
12102
12064
12048
12120
12268
12223
12216
12228
12199
12134
12178
12225
12263
12209
12091
12122
12083
12072
12168
12292
12540
12546
12514
12471
12450
12408
12313
12328
12279
12216
12146
11869
11679
11584
11486
11425
11455
11812
12009
12155
12253
12258
12294
12309
12376
12451
12492
12532
12553
12534
12563
12483
12459
12518
12535
12553
12443
12352
12059
11783
11626
11651
11781
11857
11854
11877
11925
11901
11827
12074
12253
12353
12355
12447
12368
12149
11838
11659
11696
11870
12186
12374
12509
12501
12342
12069
12091
12215
12345
12402
12341
11883
11671
11574
11665
11920
12164
12136
12084
12058
12053
12153
12123
12095
12078
12123
12197
12382
12448
12476
12495
12495
12420
12390
12379
12356
12345
12322
12230
12212
12218
12224
12222
12119
12126
12092
12106
12110
12180
12247
12252
12206
12147
12125
12193
12216
12258
12288
12271
12231
12239
12231
12225
12187
12161
12092
12061
12048
12086
12108
12082
12103
12051
12067
12086
12119
12204
12223
12143
11946
11771
11892
12036
12190
12357
12427
12389
12318
12216
12160
12185
12248
12378
12382
12369
12374
12340
11989
11775
11717
11807
12008
12117
12071
11990
11955
11978
11992
12350
12470
12514
12517
12494
12396
12033
11958
11922
11981
12073
12052
11965
11923
11904
11899
11915
11940
12000
12049
12089
12149
12335
12404
12453
12435
12355
12194
12192
12219
12272
12374
12427
12418
12378
12346
12284
12253
12259
12243
12200
12152
12073
12015
11994
11962
11976
12014
12073
12188
12237
12259
12250
12222
12177
12177
12190
12172
12166
12212
12213
12179
12201
12168
12197
12245
12245
12189
12179
12212
12114
12015
11896
11890
11940
12009
12121
12190
12220
12210
12184
12133
12148
12147
12140
12171
12283
12345
12336
12357
12361
12324
12236
12199
12194
12178
12202
12195
12084
12040
12040
12133
12184
12233
12299
12359
12370
12269
11987
12001
12119
12204
12267
12321
12292
12172
11953
11824
11771
11790
11769
11779
11839
11886
11950
11935
11948
11994
12035
12044
12105
12144
12224
12299
12373
12368
12379
12406
12409
12419
12431
12438
12442
12405
12372
12305
12247
12211
12122
12073
12033
12069
12169
12168
12121
12086
12125
12079
12112
12185
12202
12212
12215
12150
12138
12208
12236
12209
12278
12282
12332
12362
12365
12323
12293
12274
12248
12197
12153
12086
11986
11851
11720
11763
11941
11988
12105
12195
12216
12236
12184
12152
12129
12143
12153
12198
12200
12200
12181
12148
12183
12217
12258
12299
12313
12310
12250
12253
12267
12208
12182
12036
12021
12055
12092
12122
12118
12029
12006
12051
12123
12182
12226
12346
12409
12478
12485
12480
12475
12511
12536
12503
12433
12473
12476
12417
12245
12015
11524
11273
11002
10804
10729
10841
11456
11744
12003
12221
12421
12539
12631
12683
12662
12629
12601
12542
12541
12533
12486
12424
12335
12346
12302
12263
12173
12161
12145
12151
12162
12124
12069
11998
11964
11927
11981
12127
12317
12376
12427
12477
12500
12515
12507
12459
12460
12432
12363
12154
12079
12032
11982
11815
11822
11831
11773
11705
11684
11702
11862
11880
11915
11948
11978
12095
12158
12265
12345
12342
12318
12258
12248
12263
12306
12309
12304
12313
12316
12324
12295
12221
12213
12192
12188
12209
12230
12248
12251
12190
12153
12131
12195
12215
12295
12336
12328
12329
12246
12196
12128
12124
12177
12219
12216
12161
12137
12120
12056
11921
11940
11943
11937
11947
12052
12108
12137
12153
12203
12344
12384
12429
12463
12495
12507
12509
12570
12667
12771
12777
12471
12156
11828
11588
11475
11357
10995
11029
11137
11337
11581
11942
12053
12178
12257
12324
12356
12448
12415
12468
12513
12540
12682
12719
12714
12695
12685
12617
12601
12606
12609
12609
12563
12240
11941
11535
11267
11126
11362
11532
11632
11642
11590
11620
11911
11970
12014
12097
12196
12325
12401
12448
12479
12498
12504
12476
12468
12485
12505
12493
12320
12283
12256
12214
12174
12324
12352
12313
12268
12203
12167
12211
12254
12337
12485
12529
12435
12321
12153
11989
11897
11897
11769
11613
11496
11434
11437
11616
11820
11991
12148
12186
12327
12358
12351
12357
12342
12303
12395
12412
12426
12440
12451
12474
12474
12448
12395
12362
12356
12455
12573
12627
12621
12619
12675
12594
12549
12469
12385
12230
12150
12060
11991
11901
11711
11332
11252
11134
10894
10807
10856
11106
11398
11684
11962
12183
12409
12404
12367
12382
12446
12548
12555
12567
12589
12545
12559
12625
12672
12687
12686
12672
12582
12542
12500
12371
12263
12200
12251
12359
12468
12489
12433
12300
12136
11931
11726
11604
11366
11393
11496
11629
11642
11658
11728
11765
11790
11821
11837
11969
12146
12309
12392
12470
12565
12546
12511
12500
12514
12547
12498
12458
12417
12394
12379
12306
12219
12124
12061
12050
12010
11943
11936
11938
12002
12096
12252
12378
12531
12679
12765
12867
12861
12802
12700
12585
12442
12248
12232
12167
12126
12097
12111
11974
11673
11319
11060
10892
10865
10949
10996
11078
11251
11745
12013
12302
12486
12545
12569
12620
12658
12673
12667
12620
12656
12719
12748
12770
12769
12722
12700
12620
12511
12529
12577
12457
12339
12197
12035
11907
11580
11310
11110
11106
11184
11261
11570
11735
11932
12093
12167
12307
12374
12435
12455
12435
12500
12565
12583
12551
12546
12596
12632
12647
12661
12655
12615
12470
12375
12353
12385
12401
12401
12407
12331
12225
12111
11941
11254
10905
10696
10573
10629
11040
11314
11569
11735
11827
12051
12460
12576
12663
12753
12866
12968
12999
12953
12873
12844
12835
12727
12773
12749
12634
12488
12192
11929
11643
11445
11337
11353
11597
11665
11648
11566
11523
11667
11767
11941
12164
12380
12620
12711
12748
12807
12883
12920
12857
12836
12806
12785
12731
12567
12447
12280
12073
11847
11619
11067
10877
10768
10734
10788
11326
11593
11782
11978
12185
12571
12752
12851
12880
12885
12872
12954
13045
13085
13052
12968
12780
12708
12643
12591
12451
12263
11883
11685
11485
11356
11262
11248
11253
11261
11243
11222
11270
11445
11551
11728
11959
12202
12564
12624
12702
12767
12789
12862
12838
12788
12764
12741
12699
12872
13063
13190
13233
13221
13138
13066
12852
12586
12303
11982
11404
11282
11267
11353
11515
11692
11452
11152
10772
10502
10402
10430
10552
10749
11048
11363
11858
12095
12359
12584
12744
12904
13028
13097
13153
13225
13316
13372
13322
13233
13115
12990
12800
12733
12697
12724
12724
12666
12615
12704
12827
12811
12639
12006
11723
11583
11449
11239
10802
10766
10856
11022
11208
11348
11364
11345
11370
11399
11479
11519
11398
11329
11441
11630
11819
12110
12264
12484
12869
13359
14302
14760
15110
15356
15418
14988
14652
14269
13930
13624
13317
12761
12556
12337
11958
11432
10092
9366
8655
7929
7292
6848
6551
6468
6674
7184
8046
9134
10354
11554
12520
13111
13696
13851
13941
13967
14055
14108
14104
14148
14258
14264
14178
13870
13694
13554
13432
13278
12941
12842
12756
12697
12641
12437
12369
12350
12264
12133
11988
11761
11647
11528
11352
11286
11473
11547
11709
11858
11894
11867
11904
11963
12106
12275
12401
12482
12490
12471
12457
12487
12500
12521
12532
12535
12526
12487
12380
12300
12212
12130
12113
12182
12094
12011
11965
11901
11823
11777
11831
11932
12095
12304
12523
12608
12645
12643
12590
12516
12319
12214
12128
12041
11886
11734
11635
11449
11276
11084
10847
10739
10714
10820
10996
11201
11526
11725
11947
12230
12576
13121
13350
13559
13703
13768
13755
13700
13647
13567
13443
13316
13010
12772
12497
12183
11870
11394
11109
10754
10454
10264
10162
10048
10087
10217
10478
10854
11768
12126
12518
12803
12979
13131
13396
13714
14121
14377
14472
14443
14401
14243
13993
13693
13109
12910
12632
12339
12111
11928
11513
11220
10944
10667
10422
9887
9617
9477
9465
9538
9580
9690
9780
9868
10045
10294
10452
10470
10651
11734
12338
12780
13075
13344
13817
13952
14051
14172
14273
14306
14171
14136
14147
14086
13917
13455
13294
13196
13132
13005
12817
12179
11868
11624
11438
11319
11111
11036
10980
10980
11051
11366
11369
11353
11333
11438
11533
11752
11832
11905
11967
12043
12378
12584
12718
12786
12915
12947
12900
12889
12908
12896
12863
12729
12678
12679
12666
12623
12574
12693
12710
12766
12780
12727
12370
12170
11959
11782
11718
11689
11630
11563
11500
11447
11386
11219
11076
10913
10717
10593
10677
10823
11028
11247
11443
11618
12192
12373
12541
12781
13079
13561
13573
13460
13359
13329
13230
13093
13023
12988
12943
12869
12907
12906
12789
12669
12427
11893
11584
11273
11074
11036
11074
11391
11641
11883
12134
12302
12790
12914
12810
12648
12455
12215
11609
11435
11492
11679
11881
12430
12623
12752
12708
12457
11406
10876
10425
10133
10076
10188
11044
11780
12380
12748
12846
12943
12998
12972
12749
12371
11946
11321
11088
10955
10820
10808
11360
11784
12154
12503
12794
13153
13260
13299
13351
13403
13437
13251
13166
13100
13057
12967
12778
12746
12879
13031
13191
13280
13027
12825
12675
12602
12470
12174
12101
12029
11931
11867
11622
11504
11395
11279
11107
10959
10662
10586
10594
10642
10852
11353
11546
11681
11828
11978
12174
12715
12926
12971
13019
13029
12999
12990
12954
12944
12920
12846
12702
12659
12642
12642
12629
12345
12121
11901
11550
11117
10662
10619
10627
10694
10737
10885
11524
11883
12170
12426
12729
13360
13483
13477
13409
13360
13426
13550
13510
13446
13312
13099
12618
12367
12171
11981
11869
11569
11388
11196
10975
10777
10566
10421
10452
10567
10726
10989
11516
11828
12072
12242
12393
12501
12901
13103
13278
13386
13426
13449
13348
13280
13184
13048
12826
12257
12059
11871
11693
11585
11550
11612
11739
11769
11670
11346
11188
11086
11061
11212
11524
11849
11849
11906
12003
12116
12307
12366
12401
12466
12543
12584
12819
12974
13100
13224
13359
13633
13671
13737
13774
13705
13547
13487
13398
13184
12867
12606
12220
12025
11787
11483
11124
10431
10069
9739
9557
9451
9357
9316
9443
9739
10182
10687
11252
12250
12780
13310
13737
13964
13941
13769
13650
13573
13429
13303
13111
13077
12968
12707
12353
11569
11212
10835
10481
10329
10265
10335
10486
10572
10679
10828
11500
11989
12481
12842
13031
13136
13287
13342
13408
13478
13459
13297
13251
13156
13019
12890
12888
12850
12750
12571
12443
12337
12094
12058
12036
12130
12262
12401
12272
12181
12117
12091
12082
12033
12031
12040
11995
11894
11730
11749
11763
11794
11781
11790
11794
11701
11465
11210
11139
11080
11084
11179
11326
11564
12301
12672
13045
13436
13640
13661
13534
13464
13398
13300
13230
13123
12949
12737
12520
12328
12079
11490
11096
10695
10255
9944
9833
9935
10258
11257
11790
12318
12655
12718
12655
12723
12853
12891
12850
12736
12700
12774
12809
12763
12747
12817
12826
12718
12553
12372
12115
12021
11914
11826
11728
11608
11498
11563
11603
11617
11638
11723
11880
12080
12268
12426
12589
12525
12319
12068
11781
11593
11886
12155
12495
12712
12721
12632
12737
12894
13114
13204
13246
13391
13372
13254
13113
12946
12278
11946
11651
11372
10984
10614
10086
10169
10358
10626
10860
10937
10901
10853
10844
10875
11234
11508
11794
12131
12460
12699
13095
13426
13657
13803
13847
13791
13697
13661
13587
13428
13325
13071
12818
12468
12157
11819
11493
11462
11451
11397
11281
11188
11216
11219
11212
11450
11787
12564
12777
12860
12949
13006
12907
12791
12734
12720
12736
12700
12648
12611
12420
12215
11980
11554
11319
11048
10867
10842
10822
11094
11550
12051
12549
12910
13057
12891
12717
12580
12526
12461
12391
12388
12412
12406
12314
12082
11838
11655
11498
11404
11434
11589
11654
11617
11598
11674
12209
12433
12537
12638
12777
12961
13089
13334
13406
13368
13269
13241
13107
12873
12588
12221
11478
11117
10775
10527
10407
10707
11074
11510
11834
11910
11849
11836
11858
12009
12170
12355
12478
12486
12572
12704
12779
12689
12209
11961
11728
11493
11263
11514
11898
12292
12752
13110
13428
13616
13794
13959
14060
14092
13712
13417
13096
12729
12381
11863
11517
11133
10727
10312
9958
9683
9465
9163
9322
9672
10149
10653
11159
11572
11915
12271
12831
13042
13228
13391
13595
13832
13767
13667
13492
13331
12774
12546
12421
12329
12236
12131
11944
12060
12190
12196
12081
11723
11589
11542
11544
11489
11531
11839
12065
12335
12588
12754
12857
12799
12733
12614
12537
12502
12614
12679
12782
12860
13000
13127
13060
12925
12738
12580
12354
12102
11838
11613
11401
11228
10957
10836
10799
10807
10895
11303
11598
11947
12219
12375
12432
12623
12762
12909
13043
13168
13221
13162
13115
12964
12797
12803
12721
12548
12370
12233
12100
11587
11384
11273
11262
11363
11421
11366
11349
11442
11533
11575
11644
11998
12260
12365
12482
12670
12584
12280
11975
11753
11748
11901
11958
11899
11958
12103
12265
12164
11890
11580
11281
11063
10962
10890
10985
11302
11626
11968
12152
12286
12276
12122
11935
12022
12216
12514
12819
12988
13294
13541
13787
13949
13978
13951
13848
13738
13581
13418
13003
12786
12631
12450
12136
11734
10666
10199
9823
9579
9513
9531
9649
9937
10527
11240
11866
12833
13282
13672
13962
14101
13842
13613
13379
13086
12751
12510
12454
12456
12350
12139
11899
11607
11551
11482
11505
11562
11762
11851
11940
12000
12006
12099
12279
12405
12548
12680
12774
12941
12938
12790
12599
12386
12215
12601
12832
12957
13005
13091
13101
12912
12542
12134
11984
12069
12283
12572
12734
12766
12682
12283
12077
11888
11624
11128
10001
9547
9254
8905
8598
8505
8708
9060
9540
10140
10909
11718
12503
13737
13984
14129
14258
14204
13915
13844
13761
13556
13316
13090
12495
12308
12238
12165
12066
12109
12195
12038
11733
11482
11233
11152
11515
11849
12089
12360
13202
13557
13570
13226
12674
12104
11168
10903
10726
10584
10593
10939
11189
11429
11562
11618
11835
11949
12101
12276
12574
12888
13367
13525
13711
13844
13899
14047
14024
13859
13623
13459
13265
12892
12829
12714
12552
12322
11682
11265
10930
10686
10466
10539
10770
11034
11358
11733
12018
12145
12280
12383
12460
12477
12386
12368
12330
12260
12261
12403
12775
12859
12894
12885
12824
12742
12608
12422
12169
11878
11407
11327
11314
11347
11353
11448
11692
11779
11854
12040
12132
11956
11830
11632
11341
11193
11332
12187
12533
12748
12880
12977
13198
13195
13085
12957
12874
12931
13094
12951
12731
12549
12431
12317
12207
12080
11953
11823
11531
11313
11125
10977
10926
11033
11176
10977
10794
10736
10737
10920
11027
11116
11442
11959
12462
13054
13198
13233
13282
13394
13554
13506
13417
13282
13151
12814
12570
12251
11777
11213
10646
10082
10044
10269
10784
11329
12181
12435
12642
12854
13101
13339
13716
13789
13800
13705
13583
13225
13052
12932
12859
12860
12887
12825
12628
12288
11893
11449
10813
10627
10571
10582
10648
10986
11232
11452
11663
11773
11974
12523
12794
12974
13135
13235
13077
12949
12891
12891
12839
12684
12117
11825
11569
11349
11138
10855
10908
11081
11288
11551
11750
11711
11775
11976
12309
12596
12859
12830
12844
12854
12842
12920
13033
13128
13182
13180
13171
13125
13116
13054
12812
12379
11632
11483
11346
11217
11231
11484
11717
11789
11746
11643
11581
11570
11505
11568
11705
11940
12638
12681
12421
12101
11844
11709
11656
11763
11956
12050
12011
11699
11550
11321
10995
10672
10572
11194
11686
12149
12575
12941
13515
13777
13998
14093
14128
13982
13727
13514
13334
13170
13030
12495
12273
12065
11755
11389
10552
10322
10279
10347
10495
10758
11376
11715
12066
12268
12326
12366
12390
12359
12354
12357
12417
12493
12540
12573
12642
12661
12584
12444
12268
12106
12081
12356
12492
12612
12634
12542
12420
12200
12059
11937
11854
11799
11614
11491
11382
11456
11758
12096
12476
12553
12599
12683
12852
13204
13302
13352
13357
13290
12983
12786
12632
12531
12332
12155
11897
11611
11312
11051
10794
10317
10243
10304
10506
10946
11400
12047
12222
12327
12382
12393
12746
12850
12825
12724
12635
12403
12219
12109
12053
12063
12077
12331
12478
12554
12615
12702
12755
12752
12736
12646
12522
12461
12302
12268
12333
12375
12450
12409
12383
12324
12276
12221
11986
11713
11310
11002
10848
10810
10971
11091
11228
11377
11534
11764
11896
12041
12170
12262
12387
12540
12563
12599
12607
12591
12659
12714
12758
12760
12769
12737
12591
12419
12311
12296
12309
12504
12659
12748
12853
12895
12667
12504
12451
12423
12351
12267
12230
12202
12086
11998
11922
11754
11757
11687
11545
11323
11152
10994
10987
10972
11179
11496
11783
11774
11795
11917
12111
12570
12749
12850
12847
12839
12839
12925
12874
12690
12443
12181
11653
11412
11276
11246
11427
11842
12334
12489
12590
12611
12559
12279
12178
12273
12387
12440
12464
12573
12700
12839
12906
12925
12670
12446
12219
11986
11817
11614
11533
11449
11419
11450
11462
11499
11573
11700
11825
11915
11815
11806
11903
12024
12143
12227
12349
12410
12448
12404
12291
12287
12415
12632
12752
12826
12745
12699
12637
12529
12472
12387
12155
12068
12011
11938
12004
12302
12355
12404
12483
12534
12565
12401
12310
12204
12137
12054
11816
11683
11497
11380
11362
11392
11590
11774
11927
12135
12321
12560
12601
12545
12387
12237
12206
12167
12215
12378
12475
12481
12342
12195
12053
11970
11990
12074
12126
12149
12266
12389
12498
12437
12394
12366
12282
12193
12048
12024
12029
11978
11864
11798
11803
11853
11990
12098
12109
12111
12142
12144
12195
12227
12323
12494
12609
12745
12882
12826
12419
12158
11929
11718
11601
11539
11610
11664
11713
11711
11837
11891
11926
11884
11919
12047
12164
12153
12062
12075
12264
12672
12761
12831
12862
12859
12814
12858
12766
12653
12553
12488
12381
12306
12066
11778
11537
11374
11654
11762
11856
11950
12029
12050
12056
12022
11925
11773
11696
11813
12008
12207
12344
12349
12208
12092
12044
12153
12280
12335
12403
12509
12582
12588
12522
12464
12490
12574
12689
12774
12785
12706
12578
12378
12135
11715
11486
11321
11337
11420
11614
12042
12132
12230
12401
12597
12711
12516
12297
12134
11978
11872
11573
11438
11359
11426
11680
12215
12356
12499
12516
12441
12345
12008
11909
11899
11914
11940
11927
11944
11995
12086
12312
12647
12654
12641
12604
12588
12603
12585
12616
12581
12540
12526
12420
12231
12074
12009
11962
12025
12192
12148
12053
11956
11881
11681
11641
11636
11692
11800
12030
12130
12260
12432
12545
12613
12482
12391
12192
11913
11807
12008
12084
11983
11814
11661
11639
11998
12170
12307
12490
12657
12801
12802
12801
12805
12765
12665
12525
12429
12229
12019
11867
11760
11752
11728
11638
11528
11766
11965
12110
12072
11864
11600
11478
11598
11889
12221
12495
12808
12839
12739
12654
12616
12641
12485
12395
12314
12228
12144
11905
11705
11429
11188
11086
11313
11394
11497
11576
11688
11773
12143
12389
12681
12940
13188
13382
13406
13356
13315
13204
13173
13250
13188
13140
13032
12823
12107
11636
11192
10890
10603
10441
10568
10766
10985
11168
11436
11989
12133
12152
12089
12075
12255
12466
12771
13022
13222
13310
13181
12863
12342
11948
11837
11916
11841
11724
11752
11832
11823
11821
11892
12005
12146
12231
12058
12059
12183
12305
12439
12722
12731
12676
12555
12419
12378
12314
12223
12109
12032
12076
12334
12355
12261
12196
12130
12107
11936
11733
11649
11728
11876
12056
12103
12189
12254
12276
12097
11983
11886
11730
11706
11757
11951
12067
12265
12438
12521
12493
12442
12401
12348
12275
12159
12111
12123
12108
12055
11976
12093
12323
12535
12685
12772
12800
12732
12704
12635
12579
12458
12237
12086
11892
11727
11619
11441
11351
11361
11439
11670
11898
12217
12282
12354
12458
12591
12833
12772
12628
12496
12373
12229
12305
12374
12434
12465
12363
11850
11704
11512
11381
11349
11601
11844
12055
12205
12270
12293
12055
11892
11804
11695
11737
11871
11864
11815
11823
11895
12023
12314
12387
12444
12468
12518
12549
12604
12647
12619
12580
12448
12425
12434
12426
12404
12386
12270
12267
12287
12329
12363
12290
12176
12077
12018
12009
11996
12088
12097
12063
12035
12005
11970
12068
12185
12247
12262
12224
12290
12322
12310
12248
12190
12195
12250
12269
12342
12422
12419
12328
12244
12205
12173
12092
12026
11999
11947
11968
11930
11884
11949
12096
12293
12418
12486
12448
12408
12331
12224
12092
11960
11933
11928
11857
11760
11793
11779
11632
11459
11366
11443
11779
11991
12100
12188
12278
12485
12559
12593
12634
12623
12611
12555
12540
12531
12511
12443
12364
12389
12411
12397
12450
12449
12469
12471
12455
12394
12319
12150
12098
12087
12021
11910
11645
11571
11478
11495
11637
11771
11789
11799
11868
11916
11947
12084
12115
12152
12193
12222
12265
12362
12386
12374
12367
12407
12425
12367
12399
12387
12366
12283
12251
12254
12261
12275
12269
12176
12158
12178
12183
12162
12124
12074
12097
12168
12277
12424
12563
12542
12507
12395
12310
12349
12386
12403
12333
12089
11650
11580
11505
11509
11591
11608
11516
11529
11669
11826
11947
12064
12113
12156
12212
12253
12390
12568
12672
12750
12754
12819
12972
12978
12890
12811
12765
12783
12845
12737
12555
12311
11907
10592
10303
10431
10617
10848
11223
11541
11899
12172
12322
12391
12393
12275
12114
12021
11992
12108
12168
12202
12268
12404
12508
12561
12570
12547
12502
12505
12484
12463
12427
12392
12372
12305
12224
12210
12157
12173
12183
12263
12297
12341
12339
12297
12250
12262
12263
12250
12259
12240
12263
12235
12146
12052
12080
12180
12163
12146
12147
12193
12157
11942
11726
11636
11562
11515
11738
11885
12017
12172
12230
12217
12241
12237
12207
12212
12224
12220
12253
12323
12366
12403
12415
12391
12333
12288
12259
12269
12366
12321
12295
12215
12143
12188
12226
12251
12277
12265
12078
12073
12075
12087
12099
12109
12058
12068
12058
12032
11974
12062
12130
12141
12158
12212
12290
12220
12102
12055
12022
11992
12075
12101
12084
12114
12195
12302
12348
12329
12275
12201
12168
12060
12125
12174
12171
12194
12418
12492
12472
12456
12386
12316
12198
12113
12118
12163
12132
12044
11944
11917
11913
11827
11717
11548
11584
11651
11757
11854
12121
12200
12256
12344
12412
12517
12527
12479
12379
12337
12317
12334
12315
12227
12177
12149
12021
12060
12148
12221
12264
12289
12271
12302
12345
12364
12320
12335
12330
12330
12321
12319
12202
12214
12228
12256
12263
12242
12115
12063
11932
11827
11792
11887
11950
12026
12037
12054
12104
12207
12242
12265
12265
12271
12301
12283
12292
12321
12309
12281
12246
12270
12244
12208
12180
12169
12141
12154
12099
12109
12127
12168
12236
12308
12320
12335
12375
12354
12352
12310
12292
12175
12045
11994
11995
11995
12012
11955
11941
11969
12057
12113
12293
12316
12299
12268
12194
11817
11660
11624
11719
11812
11873
11858
11904
11975
12006
12057
11990
11901
11902
11962
0
11961
11858
11838
11859
11869
11892
11905
11794
11827
11837
11928
12098
12406
12554
12741
12914
13035
13136
13219
13150
13084
13068
13026
12888
12883
12853
12779
12657
12079
11656
11116
10557
10118
9868
9810
9962
10230
10937
11313
11719
12085
12441
12986
13113
13204
13341
13493
13738
13820
13820
13735
13517
13209
12205
11536
10786
10159
9778
9716
9879
10124
10704
10876
11109
11393
11674
11909
12029
12083
12161
12333
12497
12819
12906
12911
12816
12691
12417
12305
12193
12101
12032
12001
12132
12266
12414
12645
12947
13355
13365
13320
13301
13205
13096
12953
12913
12874
12884
12836
12572
12489
12348
12158
11950
11736
11603
11503
11279
10950
10776
10761
10797
10944
11159
11308
11458
11550
11539
11619
11793
11936
12157
12311
12475
12612
12667
12661
12701
12824
12905
12895
12898
12837
12844
12791
12725
12687
12673
12679
12662
12661
12686
12745
12652
12482
12313
12263
12194
11879
11864
11865
11796
11704
11486
11346
11203
11095
10953
10882
11038
11299
11553
11750
11895
12211
12401
12551
12748
12971
13171
13190
13140
13080
13076
13060
12948
12939
12932
12921
12872
12496
12252
12089
12007
11965
11944
11832
11764
11786
11824
11874
12144
12239
12297
12352
12301
12018
11790
11537
11215
10873
10595
10032
9730
9658
9803
10156
10579
11103
11626
12476
12729
12878
12972
13074
13140
13100
13111
13071
13049
13013
12545
12321
12213
12177
12222
12462
12370
12282
12200
12174
12220
12600
12741
12785
12801
12738
12722
12684
12599
12475
12393
12130
12077
12016
11992
11946
11963
12142
12366
12561
12709
12836
12870
12811
12737
12713
12654
12539
12300
12266
12237
12212
12198
12014
11939
12039
12066
11893
11547
10582
10272
10223
10254
10449
11208
11688
12087
12326
12575
12884
12932
12836
12727
12586
12438
12346
12397
12348
12309
12309
12263
12121
11987
11930
11903
11956
12364
12724
13020
13242
13284
13226
13136
13009
12841
12720
12440
12340
12194
12049
11874
11661
11207
11008
10845
10707
10629
10582
10724
11067
11341
11519
11778
12643
13027
13281
13414
13366
12898
12613
12323
12103
11962
11959
12277
12498
12708
12920
13063
13007
12838
12514
11974
11443
11290
11562
11816
12050
12244
12411
12779
12903
12859
12630
12313
11746
11679
11667
11570
11448
11401
11433
11486
11486
11453
11408
11198
11164
11188
11307
11442
11722
11789
11904
12155
12374
12523
12799
12809
12823
12846
12956
13077
13071
13040
13020
12974
12981
12944
12907
12849
12749
12653
12466
12402
12302
12197
12068
11841
11760
11724
11812
11977
12159
12468
12521
12550
12539
12475
12237
12168
12175
12187
12134
12060
11952
11953
12008
11928
11799
11957
12158
12377
12561
12658
12594
12608
12642
12685
12662
12588
12453
12369
12264
12029
11722
11374
11313
11322
11322
11319
11282
11086
10950
10904
10830
10783
11006
11187
11421
11643
11886
12101
12482
12544
12525
12591
12707
12839
12970
13322
13825
14296
14582
14486
14349
14095
13723
13264
12562
12403
12243
12131
12015
11896
11691
11369
11005
10624
10154
9189
8775
8488
8542
8849
9290
9784
10373
10901
11353
11789
12233
13127
13563
13792
13857
13868
13785
13742
13732
13731
13774
13832
13797
13687
13578
13527
13516
13426
13325
13170
13060
12971
12511
12193
11923
11594
11307
11104
10801
10636
10491
10347
10290
10351
10468
10660
10838
10987
11163
11329
11501
11674
11886
12128
12559
12689
12732
12819
13004
13123
13105
13158
13285
13388
13504
13569
13423
13344
13259
13157
12929
12860
12855
12842
12777
12514
12459
12368
12274
12138
12039
11779
11564
11273
11000
10875
10756
10685
10688
10739
10710
10584
10825
11007
11264
11579
11891
12407
12605
12832
13026
13212
13512
13949
14176
14367
14584
14662
14129
13731
13423
13052
12601
11759
11659
11819
12103
12170
12053
11421
10772
9987
9185
8467
7893
7490
7458
7841
8534
9402
10214
10873
12069
12654
13206
13717
14208
14615
14886
14767
14585
14417
14285
14078
13972
13843
13817
13816
13740
13270
12897
12470
11987
11491
10695
10442
10369
10380
10478
10527
10849
11111
11400
11638
11876
12183
12208
12100
12019
12028
12168
12209
12206
12145
12129
12089
11898
11800
11773
11865
12063
12494
12598
12686
12880
13098
13272
13300
13191
13144
13062
12988
12886
12845
12856
12839
12776
12594
12423
12270
12083
11889
11736
11403
11172
10968
10871
10907
11008
11140
11269
11401
11534
11615
11497
11549
11652
11820
12159
12695
12764
12734
12629
12572
12613
13009
13298
13472
13467
13352
12947
12766
12640
12616
12665
12816
12898
12931
13020
13053
12985
12796
12587
12157
11647
11309
10929
10847
10814
10757
10828
11156
11550
11662
11815
11951
11964
11609
11255
10873
10592
10524
10856
11110
11541
12057
12510
12877
13414
13742
13906
13899
13866
13668
13502
13207
12776
12315
12009
11829
11724
11515
11401
11248
10878
10717
10505
10279
10070
9991
10111
10400
10737
11035
11435
11932
12862
13250
13554
13821
14176
15098
15443
15484
15296
14916
14524
13786
13412
13068
12796
12494
11912
11637
11328
10967
10587
10008
9855
9736
9719
9735
9731
9726
9787
10138
10792
11522
12088
12699
12907
13035
13079
13029
13012
13144
13212
13280
13414
13494
13377
13141
12910
12760
12605
12457
12210
12191
12160
12079
12036
12048
12180
12355
12461
12386
12110
11901
11742
11717
11754
11892
12371
12560
12738
12906
13049
13037
12945
12746
12422
12021
11670
11385
11462
11576
11833
12124
12262
12082
11746
11259
10802
10336
10446
10833
11344
11913
12533
13492
13660
13613
13492
13446
13173
12916
12647
12419
12200
12033
12023
12020
11965
11809
11527
10829
10567
10402
10279
10224
10262
10457
10783
11304
11823
12373
13483
13968
14286
14399
14533
14835
14606
14207
13714
13024
12315
11274
11004
10936
10967
11087
11612
11865
11832
11637
11514
11295
10508
10448
10603
10876
11201
12181
12741
13321
13796
13935
13648
13341
12998
12623
12200
11820
11299
11180
11287
11561
11870
12335
12356
12226
12170
12186
12163
12082
12102
12155
12125
12039
11941
12043
12236
12378
12466
12734
12815
12894
12996
13040
12962
12676
12513
12425
12358
12226
12179
12176
12049
11925
11899
11927
11988
11993
12126
12215
12172
11906
11927
11904
11848
11793
11779
11935
12255
12581
12809
12902
12830
12800
12774
12774
12801
12754
12625
12472
12214
11987
11801
11435
11235
11048
10815
10512
9853
9836
10129
10632
11249
11735
12071
12582
12763
12818
12807
12768
12838
12831
12766
12694
12617
12570
12636
12673
12688
12812
12906
12988
12994
12960
12829
12568
12252
12124
12241
12281
12160
12016
11866
11620
11607
11726
11798
11924
12375
12509
12391
12174
12001
11946
12181
12296
12296
12184
12085
11904
11909
11925
11918
12011
12231
12314
12269
12072
11860
11834
11948
11920
11883
11897
11925
12038
12082
12130
12190
12239
12250
12162
12068
12102
12235
12504
12887
12983
13022
13091
13172
13222
13302
13329
13210
13027
12840
12292
11973
11704
11500
11245
10532
10434
10531
10703
10965
11352
11899
11957
11863
11732
11631
11537
11775
12191
12596
12862
13130
13203
13243
13218
13079
12807
12156
11897
11777
11747
11811
11921
11849
11804
11827
11834
11784
11435
11299
11359
11500
11658
12027
12335
12789
13191
13364
13005
12762
12583
12482
12403
12267
12205
12276
12377
12434
12436
12264
12102
11862
11516
11139
10853
10845
11063
11330
11596
11974
12632
12909
13148
13314
13352
13231
13240
13283
13226
13095
12870
12388
12213
12031
11829
11661
11438
11475
11549
11619
11657
11675
11892
12096
12279
12314
12186
11749
11575
11607
11666
11613
11571
11653
11773
12039
12422
12806
13219
13193
13031
12919
12824
12754
12703
12592
12367
12194
12087
11565
11214
10995
10852
10769
10959
11228
11550
11996
12436
12827
13400
13546
13566
13535
13440
13235
13140
12990
12841
12701
12498
12405
12325
12276
12132
11913
11350
11148
10960
10790
10575
10603
10636
10762
10883
11057
11384
12048
12219
12365
12544
12720
12983
13029
12984
12968
13031
13045
12880
12738
12636
12473
12253
11979
12081
12190
12274
12300
12240
12176
12144
12193
12320
12304
12150
12139
12139
12270
12453
12459
12354
12253
12114
12019
11905
11474
11353
11324
11408
11615
12075
12276
12414
12427
12434
12277
12209
12082
11945
11830
11797
11661
11681
11844
12039
12219
12416
12355
12284
12193
12074
12001
11711
11716
11951
12252
12517
12774
12765
12713
12679
12648
12662
12772
12916
13025
13070
12965
12556
12314
12024
11698
11443
11175
11141
11136
11207
11244
11305
11390
11456
11458
11518
11696
12274
12499
12658
12717
12711
12713
12518
12435
12364
12358
12368
12359
12527
12688
12684
12686
12748
12786
12775
12837
12872
12889
12728
12746
12834
12806
12694
12176
11892
11627
11387
11170
10960
10580
10669
10869
11058
11249
11849
12212
12431
12484
12495
12591
12571
12549
12540
12602
12661
12711
12620
12453
12217
12045
11838
11726
11676
11762
11849
12079
12251
12086
11989
11927
11991
12247
12457
12634
12715
12672
12565
12282
12216
12131
12061
11973
11847
11748
11618
11517
11424
11309
11268
11318
11469
11610
11867
12754
13098
13404
13483
13510
13494
13316
13115
12989
12888
12718
12449
12360
12264
12082
11852
11320
11021
10844
10678
10688
11076
11307
11469
11589
11710
11876
12218
12307
12393
12470
12461
12480
12593
12758
12925
13008
13059
12900
12692
12402
12136
11986
11900
11948
12052
12236
12440
12659
12762
12635
12432
12240
12111
11946
11885
11825
11770
11733
11790
11815
11816
11825
11864
11936
12003
12107
12223
12302
12386
12536
12565
12510
12379
12128
11858
11538
11529
11607
11795
12030
12329
12411
12414
12420
12408
12502
12647
12727
12775
12798
12779
12594
12613
12640
12700
12817
12976
12800
12605
12427
12226
11964
11648
11560
11406
11247
11135
11369
11537
11516
11432
11343
11060
10841
10682
10641
10731
10973
11905
12418
12945
13260
13447
13704
13769
13769
13667
13476
13196
12530
12246
12076
11958
11967
12088
12019
11799
11428
11110
10772
10340
10442
10759
11230
11714
12506
12766
13032
13195
13202
13182
13245
13195
13053
12956
12827
12582
12435
12243
12060
11955
11821
11796
11835
11828
11821
11807
11755
11788
11903
12022
12228
12661
12714
12726
12722
12727
12909
12993
12917
12754
12527
12280
11960
11866
11829
11780
11744
11678
11768
11821
11751
11643
11674
11797
11881
12060
12237
12376
12414
12303
12261
12308
12315
12261
12273
12346
12406
12398
12356
12155
11988
11857
11785
11810
11893
11931
12024
12042
11857
11721
11910
11967
12130
12277
12404
12577
12624
12643
12659
12641
12688
12721
12695
12529
12244
11958
11320
11101
11079
11095
11173
11402
11492
11467
11431
11417
11432
11566
11670
11969
12346
12654
13018
13089
13112
13132
13142
13115
13102
13121
13092
12961
12804
12417
12335
12403
12501
12542
12520
12578
12480
12379
12233
11954
11182
10752
10377
10095
9984
10149
11077
11508
11846
12144
12354
12457
12930
13161
13338
13418
13323
13090
13024
13053
13092
13119
13048
12793
12701
12546
12310
12067
11811
11803
11818
11785
11658
10998
10720
10570
10677
11065
11453
11938
12191
12364
12541
12688
12784
12821
12945
12952
12867
12667
11960
11529
11184
10958
10837
11195
11610
12046
12365
12564
12772
12770
12675
12482
12278
12233
12307
12374
12487
12579
12673
12799
12704
12569
12523
12458
12368
12238
12305
12361
12408
12445
12392
12380
12338
12252
12147
11852
11678
11525
11513
11611
11761
11649
11462
11378
11287
11190
11216
11386
11604
11795
11976
12201
12633
12785
12880
12955
12996
12890
12825
12743
12678
12597
12636
12653
12636
12535
12432
12374
12292
12220
12291
12346
12302
12039
11767
11584
11560
11687
11874
12123
12151
12170
12138
12067
11863
11887
11948
11977
12041
12136
12312
12423
12458
12375
12327
12188
11928
11641
11455
11328
11340
11492
11674
11850
12019
12112
12176
12177
12237
12340
12426
12395
12376
12390
12454
12533
12660
12826
12913
12910
12870
12808
12665
12536
12395
12363
12296
12200
12068
11907
11738
11622
11670
11862
11869
11881
11865
11792
11556
11461
11435
11546
11687
11879
12222
12365
12454
12496
12412
12220
12262
12326
12392
12480
12522
12526
12522
12443
12412
12352
12375
12391
12409
12368
12373
12369
12314
12277
12201
12141
12092
12229
12238
12267
12288
12273
12275
12247
12156
11984
11922
11918
11662
11530
11583
11770
11977
12236
12217
12084
11977
11889
11860
11707
11757
11907
12107
12203
12332
12385
12374
12302
12148
12065
12035
12067
12146
12265
12380
12466
12505
12545
12560
12549
12529
12489
12449
12392
12337
12337
12332
12298
12296
12298
12309
12458
12508
12502
12420
12205
11444
11162
11091
11103
11123
11350
12059
12278
12400
12336
12177
11950
11927
11988
12075
12133
12139
12185
12108
12105
12196
12312
12350
12412
12449
12476
12504
12515
12532
12536
12517
12436
12352
12322
12273
12320
12338
12325
12249
12199
12035
11822
11660
11533
11710
11910
12049
12073
11875
11536
11616
11755
11954
12139
12242
12310
12326
12406
12485
12515
12502
12473
12430
12406
12371
12351
12359
12360
12254
12121
12073
12060
12050
12029
12064
12067
12087
12142
12214
12240
12268
12290
12191
12173
12217
12263
12260
12252
12223
12253
12265
12265
12186
12149
12103
12059
12041
12078
12130
12133
12136
12121
12116
12062
12052
12113
12160
12222
12268
12199
12166
12188
12210
12192
12057
12099
12166
12212
12293
12275
12131
12060
11968
11922
11923
12135
12246
12317
12283
12271
12287
12247
12264
12266
12235
12228
12166
12142
12104
12046
12001
11854
11863
11946
12135
12242
12277
12317
12418
12491
12472
12411
12374
12333
12216
11984
11709
11496
11508
11609
11776
11928
12113
12346
12336
12332
12353
12360
12424
12494
12524
12543
12494
12452
12323
12254
12154
12008
11921
11877
11909
11960
11976
11958
12095
12069
12069
12103
12180
12225
12321
12274
12229
12180
12203
12100
12093
12113
12170
12234
12282
12337
12413
12469
12466
12409
12379
12378
12377
12383
12264
12064
11796
11687
11633
11665
11790
12095
12095
12051
12039
12106
12107
12080
12154
12201
12252
12301
12363
12406
12425
12442
12408
12342
12333
12315
12284
12251
12182
12140
12074
12036
12082
12153
12214
12153
12018
11969
11991
12050
12100
12178
12192
12157
12115
12041
12047
12083
12128
12183
12182
12187
12213
12229
12229
12183
12127
12093
12134
12168
12210
12265
12277
12238
12184
12149
12162
12192
12216
12238
12255
12251
12214
12176
12119
12101
12111
12137
12149
12200
12210
12233
12236
12159
12191
12150
12101
12099
12174
12241
12250
12200
12165
12160
12117
11964
11917
11957
12027
12073
12023
11996
12079
12141
12275
12328
12348
12333
12336
12310
12154
12146
12147
12177
12221
12314
12262
12149
12058
11997
12022
12135
12243
12329
12384
12368
12398
12433
12399
12237
12024
11877
11779
11783
11854
11945
12011
12009
12041
11976
11926
11955
12183
12272
12306
12296
12246
12241
12246
12281
12290
12316
12353
12352
12333
12305
12288
12265
12258
12219
12187
12175
12193
12212
12123
12098
12110
12110
12075
12172
12205
12201
12206
12194
12152
12157
12179
12183
12204
12220
12219
12222
12222
12222
12199
12189
12172
12159
12154
12162
12154
12117
12060
12013
12006
12039
12182
12233
12244
12275
12299
12271
12172
12136
12100
12089
12189
12190
12152
12102
12056
12020
12056
12109
12101
12089
12102
12110
12081
12008
11998
12032
12072
12135
12289
12339
12331
12271
12180
12088
12165
12223
12231
12277
12302
12310
12297
12291
12257
12235
12210
12183
12144
12134
12139
12172
12148
12080
12084
12029
12041
12187
12285
12354
12375
12377
12288
12304
12367
12379
12327
12237
12173
12087
11976
11827
11703
11610
11524
11507
11596
11702
12059
12193
12201
12219
12264
12282
12334
12337
12385
12387
12434
12428
12435
12457
12534
12555
12565
12471
12411
12337
12260
12103
11924
11903
11923
11973
12061
12211
12229
12186
12110
12144
12142
12133
12065
12053
12028
11990
11951
11922
11870
11800
11759
11831
12001
12079
12151
12264
12375
12417
12361
12292
12234
12193
12245
12270
12254
12161
12173
12153
12159
12185
12273
12278
12292
12232
12187
12194
12223
12250
12204
12275
12287
12272
12247
12252
12232
12230
12230
12224
12172
12177
12179
12169
12157
12106
12113
12071
12044
12066
12084
12129
12182
12127
12079
12094
12132
12140
12073
12033
12033
12024
12028
12131
12167
12215
12213
12195
12212
12272
12287
12303
12254
12266
12279
12270
12308
12324
12314
12173
12040
11925
11910
12021
12167
12198
12082
11955
11928
11958
11899
11955
12071
12177
12209
12239
12299
12336
12357
12295
12303
12454
12432
12329
12265
12303
12607
12694
12687
12670
12554
12364
11568
11173
11067
11065
11182
11527
11651
11802
11916
12023
12081
12310
12399
12451
12458
12377
12348
12356
12359
12388
12441
12445
12368
12362
12364
12368
12411
12336
12292
12241
12249
12296
12384
12364
12348
12340
12343
12359
12343
12230
12067
11902
11740
11600
11530
11504
11537
11676
11877
12285
12338
12287
12214
12231
12540
12724
12867
12884
12843
12536
12334
12290
12340
12434
12466
12234
12074
11944
11757
11622
11219
10982
10711
10597
10849
11307
12194
12347
12371
12391
12460
12573
12536
12591
12553
12426
12347
12426
12464
12503
12547
12530
12481
12468
12481
12477
12422
12178
12133
12042
11906
11882
11962
12088
12049
12049
12124
12233
12321
12318
12272
12213
12146
12092
11918
11885
11885
11985
12054
12119
12131
12174
12210
12216
12146
12158
12173
12196
12190
12228
12279
12260
12242
12222
12208
12219
12214
12217
12277
12252
12203
11970
12042
12100
12068
12043
11983
12014
12062
12063
12024
11976
12020
12077
12055
12035
12057
12223
12279
12316
12325
12328
12412
12454
12442
12482
12525
12558
12545
12485
12443
12340
12218
11979
11875
11771
11727
11673
11636
11621
11734
11831
11930
11965
12094
12164
12250
12347
12365
12407
12429
12443
12469
12534
12576
12628
12575
12514
12447
12360
12252
12194
12186
12199
12193
12104
12142
12146
12029
11921
11913
11893
11891
11920
11990
12042
12240
12472
12616
12565
12421
12290
11940
11751
11627
11690
11858
12119
12145
12178
12227
12279
12332
12315
12240
12169
12035
11831
11493
11411
11437
11511
11647
11753
11970
12127
12290
12416
12604
12751
12725
12670
12620
12596
12528
12396
12138
11878
11784
11829
12061
12017
11998
12009
12020
12127
12196
12277
12319
12338
12286
12267
12264
12294
12335
12340
12393
12403
12348
12362
12335
12327
12305
12275
12223
12208
12237
12268
12273
12266
12269
12279
12324
12283
12236
12250
12286
12312
12291
12300
12265
12189
12119
11894
11692
11540
11440
11374
11353
11533
11660
11761
11867
11969
12052
12078
12000
11963
12050
12193
12282
12358
12444
12521
12551
12494
12473
12470
12450
12441
12437
12434
12421
12408
12353
12351
12418
12431
12406
12371
12355
12328
12303
12245
12167
12115
12025
12004
12062
12138
12158
12155
12104
12028
12017
12040
12100
12260
12291
12293
12220
12136
12021
11992
11961
11900
11823
11788
11949
12033
12086
12043
12026
12052
12161
12222
12242
12220
12238
12310
12294
12282
12295
12371
12602
12738
12791
12835
13016
13175
13064
12895
12693
12471
12229
11975
11947
11946
11877
11844
11958
11787
11567
11157
10636
10192
9866
9824
9915
10145
10373
10612
10903
11294
12260
12645
12971
13149
13245
13307
13261
13218
13176
13129
13105
13015
12861
12770
12683
12613
12631
12642
12597
12523
12468
12437
12371
12339
12287
12210
12189
12194
12174
12180
12216
12193
12165
12144
12069
11999
11977
12005
12075
12069
12100
12132
12091
12085
12145
12224
12257
12302
12314
12321
12356
12339
12260
12203
12153
12168
12204
12280
12277
12333
12510
12441
12333
12174
11994
11703
11645
11588
11637
11740
11882
12112
12202
12229
12217
12182
12011
11938
11891
11839
11825
11932
12011
12079
12151
12138
12099
11977
11914
11935
12072
12275
12459
12513
12494
12450
12403
12331
12375
12462
12567
12641
12703
12659
12613
12608
12560
12414
12024
11869
11822
11794
11808
11740
11667
11703
11726
11641
11594
11500
11600
11775
11968
12232
12392
12669
12780
12810
12794
12750
12572
12500
12559
12634
12581
12318
12085
11874
11704
11618
11648
11644
11647
11653
11735
11849
12259
12520
12665
12717
12777
12809
12644
12488
12378
12288
12250
12168
12070
11949
11808
11657
11501
11272
11218
11184
11191
11264
11439
11574
11743
11814
11908
12282
12389
12460
12486
12481
12520
12584
12633
12718
12787
12868
12943
12897
12831
12800
12761
12684
12577
12522
12519
12535
12514
12511
12514
12504
12397
12250
11883
11674
11479
11426
11434
11575
11706
11789
11890
11972
12033
12010
11887
11785
11693
11703
11817
12240
12509
12685
12834
12899
12939
12919
12880
12782
12604
12487
12403
12327
12242
12161
12063
11890
11773
11654
11568
11557
11583
11689
11741
11851
12060
12246
12470
12507
12374
12142
11954
11756
11740
11833
11955
12079
12183
12372
12441
12455
12456
12376
12141
12114
12225
12397
12511
12615
12568
12494
12477
12538
12580
12331
12215
12112
11918
11670
11310
11298
11441
11592
11661
11705
11707
11695
11690
11665
11654
11804
11915
12077
12315
12481
12574
12626
12509
12360
12232
12145
11948
11834
11782
11756
11767
11946
12132
12245
12420
12559
12662
12797
12858
12891
12883
12892
12865
12960
13092
13162
13137
13076
12774
12540
12244
12046
11948
11730
11679
11678
11620
11534
11555
11633
11662
11645
11570
11449
11217
11179
11208
11313
11428
11595
11803
12049
12338
12609
12863
13278
13278
13261
13264
13308
13307
13208
13091
12989
12832
12636
12578
12504
12377
12226
12048
11817
11713
11621
11496
11376
10863
10607
10387
10216
10152
10337
11074
11379
11655
11890
12085
12442
12551
12650
12754
12858
12930
13027
13058
13058
13064
13069
13089
13048
13019
12958
12877
12828
12932
13211
13459
13546
13542
13340
13057
12702
12410
12144
11764
11686
11555
11433
11456
11520
11511
11447
11281
10957
10488
9494
9119
8897
8944
9235
9690
10263
10820
11532
12341
12938
13827
14115
14211
14262
14223
14321
14324
14261
14089
13864
13701
13254
12921
12549
12047
11529
10507
10146
9910
9749
9768
9981
10314
10664
10894
11294
11450
11628
11822
12153
12454
12806
12898
12941
12938
13007
13074
13054
13049
13000
12984
12941
12871
12880
12892
12850
12785
12711
12742
12821
12876
12854
12748
12714
12657
12629
12595
12647
12621
12545
12441
12291
12135
11799
11635
11539
11458
11283
11092
10680
10562
10496
10496
10545
10885
11128
11358
11586
11773
12038
12173
12272
12441
12603
12764
13045
13149
13184
13179
13199
13417
13376
13233
13077
12842
12641
12383
12266
12225
12200
12191
12204
12181
12082
11997
12019
11958
11771
11718
11579
11461
11440
11321
11239
11161
11143
11172
11277
11340
11513
11792
12041
12261
12612
12769
12951
13040
13093
13323
13409
13442
13412
13320
13187
12747
12577
12389
12198
12054
11746
11473
11238
11080
10927
10819
10741
10758
10882
11095
11329
11796
11956
12086
12259
12515
12847
12982
13192
13423
13537
13599
13432
13371
13317
13138
12910
12550
12390
12246
12068
11896
11645
11487
11319
11138
10985
10753
10234
10040
9962
10060
10339
10709
11610
12003
12369
12725
12974
13095
13224
13362
13384
13456
13483
13420
13344
13290
13224
13126
12806
12714
12657
12605
12551
12414
12071
11877
11665
11475
11409
11365
11343
11389
11546
11727
11963
12312
12399
12442
12497
12520
12574
12560
12532
12535
12488
12473
12554
12556
12396
12190
11937
11442
11288
11222
11219
11338
11641
11724
11711
11707
11815
12067
12370
12466
12663
12941
13133
13098
13038
13020
12984
12891
12690
12451
12354
12183
12119
12157
12216
12107
11937
11656
11274
10796
10765
10774
10792
10802
10835
11235
11527
11900
12222
12448
12936
13171
13295
13189
12857
12412
11838
11807
11903
12158
12496
12812
12850
12854
12883
12943
12991
12907
12762
12569
12275
11923
11187
10677
10322
10155
10135
10806
11297
11687
12027
12353
12593
12860
12926
12940
12942
13059
13147
13135
13136
13066
12973
12832
12510
12381
12295
12260
12347
12556
12513
12352
12191
12011
11798
11744
11671
11582
11491
11415
11441
11614
11825
11980
12140
12349
12328
12214
12093
11962
11830
11683
11631
11563
11530
11592
11848
11975
12006
12145
12363
12726
12791
12822
12818
12827
12806
12585
12454
12365
12351
12387
12625
12579
12562
12549
12540
12549
12556
12660
12760
12807
12820
12608
12459
12320
12124
12054
11962
11848
11933
11915
11823
11695
11445
11366
11345
11272
11155
10922
10863
10910
11098
11333
11556
11947
12148
12309
12483
12777
13129
13140
13099
13036
13067
13070
12987
13095
13193
13277
13410
13366
13221
13052
12861
12614
12143
11874
11526
11138
10810
10614
10433
10379
10337
10311
10368
10508
10597
10706
10788
10909
11196
12752
13538
14009
14285
14538
14825
14665
14439
14259
14050
13762
13092
12838
12632
12412
12207
11403
10886
10435
9963
9427
8915
8568
8322
8204
8358
8773
9473
10262
11142
12626
13098
13472
13747
13846
13695
13701
13733
13777
13727
13742
13772
13807
13789
13715
13620
13476
13381
13178
12884
12627
12128
11939
11746
11576
11482
11522
11659
11678
11619
11549
11471
11284
11190
11136
11136
11227
11451
11880
12031
12176
12318
12392
12485
12514
12510
12485
12453
12319
12242
12207
12165
12214
12251
12312
12428
12537
12644
12701
12685
12738
12761
12749
12680
12701
12868
12905
12998
13022
12952
12812
12729
12623
12512
12438
12468
12355
12125
11780
11472
11156
10581
10441
10390
10322
10276
10217
10154
10197
10425
10712
11066
11620
11844
12071
12243
12390
12660
12916
13177
13366
13407
13311
13345
13374
13303
13203
13149
12997
12975
13008
12990
12895
12571
12326
12113
11944
11750
11551
11486
11613
11733
11925
12159
12637
12860
12997
13136
13194
13146
12937
12745
12454
12117
11826
11362
11025
10698
10377
10232
10495
10731
10845
10973
11261
11533
11573
11443
11319
11326
11541
12432
12801
13166
13543
13701
13659
13474
13344
13271
13133
12955
12594
12311
12149
12096
12096
12210
12052
11706
11242
10773
10371
10016
10060
10220
10539
10987
11958
12361
12698
13028
13287
13543
13825
13776
13639
13453
13241
13014
12862
12771
12761
12720
12629
12389
12285
12273
12282
12305
12303
12369
12388
12358
12380
12691
12857
12959
13052
13103
13065
12642
12356
12068
11839
11607
11336
11264
11156
10959
10818
10871
11474
11682
11775
11838
11835
11613
11582
11604
11584
11542
11480
11489
11469
11428
11304
11210
11456
11841
12180
12450
12716
12894
12863
12720
12693
12737
12816
12948
13015
13249
13634
13920
13916
13962
14046
14013
14045
14010
13627
13401
13118
12812
12508
11894
11654
11352
10973
10581
9847
9587
9330
9155
9275
9473
9513
9543
9683
9816
9854
9892
10124
10591
11279
12059
12728
13447
13533
13562
13624
13817
14387
14399
14230
13989
13733
13453
12710
12390
12143
11886
11668
11617
11803
12146
12492
12653
12485
12361
12403
12556
12566
12565
12404
12292
12170
12069
12003
11838
11802
11701
11416
11051
10785
10358
10230
10310
10500
10717
11616
12109
12468
12693
12854
13024
13095
13187
13295
13397
13469
13590
13614
13583
13522
13403
13027
12835
12604
12386
12171
12068
12134
12170
12089
12039
12036
12102
12056
11929
11830
11745
11654
11746
11905
12048
12060
12054
12091
11959
11766
11614
11507
11479
11551
11652
11847
12010
12138
12282
12173
11948
11803
11705
11723
11947
12333
12650
12895
13142
13230
13235
13257
13239
13160
12814
12517
12213
11879
11508
10800
10699
10867
11210
11581
11950
12445
12611
12743
12778
12655
11906
11479
11205
11063
11082
11075
11066
11345
11728
12051
12162
11955
11913
11964
12065
12213
12431
12767
12976
13178
13365
13522
13663
13703
13673
13579
13654
13505
13258
12969
12682
12319
11856
10791
10195
9708
9376
9164
9177
9544
10133
10740
11247
11789
11859
11928
12129
12294
12425
12520
12641
12879
13161
13419
13688
13773
13782
13686
13579
13260
13154
13018
12866
12687
12507
12500
12472
12420
12178
11817
11052
10704
10453
10376
10383
10628
10917
11296
11648
12019
12394
12879
13141
13270
13289
13344
13392
13240
13061
12815
12634
12559
12411
12250
12090
11961
11882
11673
11463
11257
11217
11431
11718
11588
11433
11496
11685
11905
12045
12147
12298
12574
12764
12859
12686
12489
12252
12154
12244
12628
12767
12836
12837
12795
12843
12871
12836
12603
12184
11163
10763
10430
10200
10184
10415
11133
11576
11962
12279
12493
12531
12434
12348
12286
12168
12016
11742
11691
11736
11844
11910
11964
12049
12210
12381
12532
13133
13425
13594
13675
13742
13718
13402
13210
13054
12879
12689
12343
12080
11835
11589
11332
11123
10875
10846
10792
10641
10482
10314
10504
10727
10917
11231
11743
12710
12935
13081
13216
13329
13435
13285
13145
13050
12975
12915
12781
12611
12434
12305
12193
12121
11998
11815
11627
11562
11639
11730
11859
11919
11943
11969
12024
12113
12223
12373
12557
12918
12961
12899
12833
12728
12798
12901
12951
12950
12865
12818
12692
12566
12353
12147
12010
12080
12128
12053
11906
11809
11738
11485
11351
11290
11278
11309
11331
11298
11235
11278
11416
11537
11867
12073
12385
12664
12769
12716
12624
12550
12488
12426
12385
12249
12101
12008
11977
11972
11966
11924
11927
12055
12305
12960
13198
13279
13237
13127
12959
12495
12214
11901
11556
11274
11167
11158
11172
11179
11192
11236
11225
11106
10970
11020
11170
11515
11653
11763
11820
11829
11935
12077
12306
12483
12615
12715
13018
13267
13576
13857
13976
13769
13625
13540
13429
13275
12991
12799
12700
12558
12341
12103
11638
11441
11342
11286
11287
11492
11638
11839
11979
12121
12284
12279
12142
12079
11959
11837
11878
11981
12125
12308
12380
12199
11451
11209
11110
11128
11470
12164
12405
12747
13138
13394
13393
13245
13002
12743
12435
12241
12097
12016
11947
11828
11684
11640
11700
11805
11895
11916
11836
11542
11340
11159
11211
11450
12144
12408
12688
12880
12917
12709
12551
12481
12464
12413
12392
12513
12496
12477
12439
12389
12405
12350
12254
12123
12012
11874
11589
11497
11415
11296
11163
11275
11452
11740
12008
12161
12277
12622
12971
13175
13241
13215
13554
13636
13510
13365
13266
12906
12683
12454
12247
12084
11876
11197
10961
10798
10680
10537
10058
9853
9895
10080
10445
10859
11211
12037
12449
12781
13027
13312
13571
13716
13629
13513
13361
13246
13256
13237
13117
12888
12639
12425
12230
12029
11882
11875
11940
11842
11734
11584
11500
11358
11172
11210
11424
11594
11704
11877
12232
12354
12422
12423
12372
12459
12468
12427
12371
12437
12472
12582
12673
12700
12671
12671
12673
12711
12588
12341
12051
11827
11442
11338
11311
11305
11381
11466
11595
11744
11936
12056
12158
12227
12352
12444
12532
12563
12603
12684
12742
12790
12790
12802
12702
12596
12480
12321
12119
11867
11726
11563
11459
11415
11343
11371
11445
11652
11819
12089
12200
12367
12501
12734
13063
13339
13411
13515
13519
13314
12733
12485
12285
12118
11930
11698
11169
10825
10592
10530
10465
10736
11065
11376
11589
11756
11900
12139
12219
12263
12329
12504
12973
13112
13180
13169
13069
12729
12547
12408
12347
12437
12533
12726
12750
12713
12610
12394
11994
11900
11704
11455
11257
11200
11632
12099
12466
12690
12766
12591
12448
12378
12391
12391
12328
12345
12368
12361
12276
12137
11801
11696
11721
11720
11443
10875
10811
10812
10843
11028
11360
12225
12579
12833
13144
13530
13997
13905
13742
13514
13202
12792
12179
11932
11712
11534
11375
11021
10942
10861
10739
10683
10888
11156
11473
11825
12134
12469
12807
12955
13029
13010
12969
12791
12668
12644
12634
12546
12495
12423
12493
12546
12580
12563
12625
12611
12496
12347
12203
12006
12023
11946
11959
12068
12222
12395
12376
12307
12168
12039
11974
12172
12359
12545
12651
12643
12424
12307
12069
11896
11806
11519
11363
11193
10945
10730
10687
10984
11242
11378
11577
11814
12414
12588
12686
12679
12637
12626
12686
12774
12819
12852
12850
12690
12740
12759
12812
12864
12832
12789
12693
12493
12231
12035
11928
12238
12519
12650
12689
12768
12788
12809
12789
12765
12661
12555
12308
11940
11622
11139
9819
9210
8735
8508
8601
9038
9679
10332
10990
11693
12317
12824
13433
13547
13620
13552
13477
13579
13651
13613
13568
13440
12896
12645
12472
12330
12277
12311
12394
12495
12580
12601
12561
12380
12220
12028
11949
11990
12039
11856
11583
11316
11104
10994
10893
11004
11241
11504
11696
11796
12272
12471
12615
12705
12826
12973
13031
13147
13087
12861
12499
12327
12156
12047
12036
12113
12226
12150
12043
11845
11657
11534
11623
11670
11612
11507
11432
11532
11661
11758
11933
12168
12501
12592
12699
12839
12872
12921
12950
12930
12860
12837
12848
12690
12570
12414
12317
12221
12089
12121
12156
12124
12057
11930
11641
11624
11653
11667
11730
11914
11949
12036
12044
11957
11828
11601
11643
11734
11844
11937
12217
12315
12328
12389
12482
12517
12521
12552
12630
12678
12685
12557
12467
12480
12536
12507
12474
12359
12241
12088
11956
11851
11678
11612
11562
11546
11611
11724
11696
11602
11571
11603
11869
12017
12221
12380
12500
12586
12527
12476
12457
12475
12493
12513
12494
12459
12387
12328
12319
12227
12173
12138
12205
12280
12439
12431
12372
12276
12256
12260
12273
12265
12252
12182
12130
12204
12298
12387
12387
12325
12083
11961
11814
11706
11642
11662
11845
12083
12270
12344
12308
12057
11848
11645
11480
11417
11434
11661
11801
11949
12089
12225
12268
12189
12168
12154
12157
12164
12303
12365
12423
12388
12363
12377
12369
12380
12404
12454
12522
12593
12577
12546
12405
12266
12415
12569
12621
12647
12624
12581
12432
12278
12236
12241
12169
12133
12034
11939
11887
11835
11483
11422
11415
11427
11494
11853
12047
12187
12227
12229
12249
12161
11972
11781
11688
11731
11976
12088
12165
12250
12359
12460
12512
12554
12567
12587
12582
12562
12544
12513
12476
12421
12357
12350
12272
12163
12029
11884
11945
11957
11891
11903
11897
12022
12095
12110
12092
12083
12183
12294
12294
12323
12345
12333
12299
12281
12271
12263
12232
12119
12088
12104
12119
12134
12106
12035
12012
12012
12020
12095
12181
12223
12211
12153
12100
12105
12062
12030
12089
12162
12201
12195
12125
12086
12092
12097
12148
12101
12128
12155
12170
12157
12132
12145
12101
12087
12148
12260
12278
12289
12226
12186
12181
12216
12215
12240
12265
12271
12205
12213
12189
12138
12128
12111
12074
12113
12126
12140
12144
12031
12046
12055
12075
12114
12199
12246
12250
12222
12161
12123
12189
12220
12237
12286
12272
12246
12242
12202
12165
12150
12152
12086
12080
12106
12121
12137
12085
12102
12087
12069
12092
12176
12218
12251
12237
12175
12129
12156
12202
12218
12259
12278
12240
12222
12265
12249
12200
12235
12213
12188
12172
12158
12152
12112
12115
12139
12169
12202
12221
12350
12390
12407
12344
12260
12314
12346
12246
12065
11895
11794
11875
11985
12062
12052
12040
11978
11961
11992
12028
12083
12172
12080
12002
12055
12089
12140
12320
12418
12505
12474
12336
11954
11832
11808
11803
11906
12182
12334
12368
12349
12354
12328
12364
12375
12383
12413
12457
12432
12335
12184
12117
12035
11926
11814
11900
12087
12215
12219
12037
12051
12074
12127
12219
12286
12364
12340
12359
12328
12319
12299
12274
12216
12200
12206
12194
12163
12111
12079
12083
12044
12155
12181
12192
12224
12203
12132
12138
12149
12158
12182
12229
12236
12222
12186
12189
12207
12191
12168
12133
12124
12131
12160
12150
12083
12051
12051
12068
12110
12152
12181
12194
12183
12132
12092
12135
12159
12184
12232
12257
12248
12222
12229
12204
12202
12185
12172
12138
12146
12144
12201
12160
12078
12104
12072
12059
12145
12219
12228
12250
12237
12246
12246
12186
12112
12049
12104
12129
12136
12111
12033
12021
12027
11996
11963
11951
11998
12174
12198
12180
12158
12186
12143
12176
12238
12290
12302
12232
12166
12155
12188
12219
12222
12299
12327
12308
12270
12220
12169
12160
12166
12140
12120
12131
12205
12179
12126
12135
12170
12122
12130
12190
12231
12323
12326
12253
12204
12235
12254
12242
12194
12166
12177
12197
12209
12196
12193
12204
12181
12108
12032
12144
12168
12123
11968
11849
11773
11808
11873
11984
12036
11978
11907
11959
12069
12212
12283
12317
12344
12372
12351
12334
12341
12317
12321
12287
12281
12267
12248
12236
12214
12177
12130
12154
12072
12103
12179
12236
12221
12194
12152
12136
12145
12210
12199
12218
12251
12242
12216
12203
12206
12200
12180
12172
12150
12159
12135
12156
12139
12062
12019
12044
12051
12103
12158
12177
12165
12157
12132
12156
12179
12174
12219
12231
12245
12250
12255
12233
12222
12214
12212
12162
12140
12143
12143
12177
12137
12071
12074
12066
12084
12117
12170
12229
12198
12164
12130
12151
12194
12203
12218
12235
12263
12248
12163
12150
12147
12159
12207
12152
12084
12047
12065
12104
12090
12072
12073
12088
12140
12185
12406
12319
12130
11937
11833
11785
11799
11912
12037
12187
12214
12255
12258
12280
12322
12315
12251
12226
12246
12265
12244
12147
12183
12154
12187
12194
12245
12259
12289
12260
12198
12157
12210
12220
12230
12263
12281
12312
12258
12207
12219
12208
12196
12140
12127
12133
12136
12140
12113
12062
12041
12013
12048
12117
12212
12197
12195
12143
12132
12183
12194
12169
12208
12215
12233
12235
12202
12196
12191
12191
12151
12110
12088
12109
12136
12136
12058
12071
12059
12057
12123
12171
12201
12219
12196
12157
12189
12237
12236
12249
12289
12273
12231
12207
12172
12180
12162
12082
12017
12050
12110
12146
12166
12040
12000
11976
11899
11918
12187
12244
12279
12268
12216
12153
12181
12204
12138
12224
12306
12335
12311
12348
12298
12270
12309
12285
12256
12275
12274
12251
12192
12194
12182
12148
12100
12186
12211
12209
12166
12064
11939
11981
11949
11851
11756
11710
11753
11835
11897
11990
12068
12227
12261
12264
12283
12338
12364
12295
12247
12285
12301
12290
12307
12306
12325
12312
12304
12216
12214
12273
12269
12267
12347
12385
12351
12326
12321
12330
12239
12245
12233
12216
12222
12253
12173
11916
11738
11727
11734
11790
11912
12008
12119
12192
12170
12092
12096
12074
12085
12114
12271
12286
12309
12265
12252
12200
12144
12094
12058
12067
12100
12126
12150
12129
12167
12132
12181
12219
12235
12269
12299
12299
12189
12200
12227
12260
12258
12290
12315
12288
12281
12286
12253
12207
12171
12119
12100
12061
12111
12090
12054
12039
12041
12021
12081
12158
12177
12203
12180
12151
12173
12195
12248
12244
12346
12397
12341
12302
12282
12243
12196
12177
12121
12123
12176
12186
12159
12046
11936
11848
11738
11709
11889
12020
12134
12190
12239
12235
12297
12349
12339
12372
12430
12419
12358
12273
12183
12122
12107
12048
11977
11971
12070
12173
12200
12180
12166
12169
12233
12225
12136
12086
12055
11897
11878
11910
12044
12111
12274
12357
12456
12450
12419
12419
12284
12269
12312
12371
12405
12456
12469
12446
12411
12394
12403
12388
12364
12390
12321
12118
11660
11526
11450
11341
11199
11105
11314
11566
11790
11952
12074
12155
12197
12191
12113
12126
12344
12419
12464
12467
12406
12398
12378
12365
12396
12446
12495
12479
12395
12349
12372
12415
12454
12430
12432
12452
12357
12272
12140
12070
12062
12076
12047
11986
12038
12099
12111
12062
12002
12020
12015
12058
12108
12182
12245
12244
12235
12253
12308
12344
12358
12460
12571
12538
12391
12170
12037
11974
11949
11980
12052
12040
11985
11939
11871
11759
11882
12002
12041
12107
12147
12187
12234
12259
12294
12362
12428
12360
12330
12244
12107
12073
12344
12363
12349
12305
12276
12205
12136
12212
12250
12178
11930
11501
11395
11423
11522
11710
12114
12210
12237
12175
12083
12026
12087
12215
12341
12415
12412
12419
12404
12396
12406
12410
12431
12425
12433
12426
12409
12385
12300
12338
12338
12302
12333
12324
12308
12268
12161
12050
11908
11704
11610
11652
11728
11876
12172
12281
12360
12381
12393
12379
12281
12237
12155
12098
12039
12141
12248
12179
12098
12080
12202
12356
12410
12345
12257
12186
12045
11960
11879
11840
11827
12068
12141
12207
12261
12336
12327
12219
12147
12041
11961
11998
12158
12255
12294
12270
12244
12257
12328
12388
12439
12369
12329
12304
12316
12251
12241
12219
12064
11896
11839
11796
11798
11820
11829
11852
11928
12051
12181
12237
12226
12272
12272
12271
12313
12399
12414
12439
12437
12408
12360
12326
12244
12195
12167
12129
11983
11977
12018
12098
12170
12269
12238
12202
12172
12168
12229
12174
12181
12185
12236
12291
12270
12214
12129
12064
11915
11874
11882
11844
11829
11868
11855
11988
12136
12259
12341
12362
12449
12406
12350
12348
12329
12266
12174
12140
12121
12114
12199
12318
12303
12268
12157
12011
11737
11701
11737
11811
11916
12077
12172
12162
12206
12196
12213
12313
12328
12367
12441
12501
12465
12365
12267
12222
12261
12286
12342
12355
12402
12416
12360
12171
12103
12064
12021
11963
11899
11657
11613
11617
11632
11684
11820
11932
12059
12176
12242
12299
12437
12451
12496
12502
12519
12587
12570
12454
12356
12266
12118
12020
11860
11718
11692
11741
11986
12128
12245
12266
12300
12353
12328
12263
12215
12124
11979
11877
11832
11761
11742
11731
12015
12214
12340
12459
12487
12425
12394
12365
12313
12244
12106
11998
12001
12084
12156
12202
12191
12200
12167
12136
12130
12194
12244
12223
12108
12059
12067
12213
12302
12345
12393
12408
12432
12323
12306
12336
12336
12309
12371
12375
12356
12339
12339
12330
12339
12350
12343
12270
12212
12212
12229
12201
12209
12285
12434
12563
12701
12823
12871
12792
12387
12193
12141
12154
12112
11991
11897
11795
11682
11582
11318
11327
11432
11518
11540
11534
11360
11276
11235
11154
11249
11603
11769
11957
12163
12377
12540
12700
12795
12893
13004
13073
13042
12992
12877
12716
12525
12127
12072
12143
12198
12248
12283
12278
12126
11956
11789
11637
11631
11649
11643
11638
11711
11828
12081
12107
12134
12184
12208
12237
12311
12330
12338
12389
12425
12450
12549
12646
12672
12651
12614
12626
12664
12697
12628
12439
12366
12321
12352
12349
12355
12212
12052
11890
11793
11787
11759
11786
11817
11837
11838
11807
11566
11535
11588
11678
11754
11816
11901
12023
12168
12271
12380
12396
12371
12364
12427
12464
12524
12487
12450
12483
12542
12603
12573
12635
12686
12708
12750
12837
12785
12661
12583
12532
12379
12337
12233
12023
11717
11364
10818
10687
10687
10801
10974
11404
11438
11383
11301
11256
11189
11206
11336
11496
11779
12107
12721
12886
13066
13239
13320
13475
13560
13600
13627
13596
13473
13051
12751
12456
12259
12147
12149
12246
12242
12097
11919
11520
11212
10968
10829
10733
10787
11003
11224
11489
11775
11988
12217
12303
12377
12436
12453
12459
12484
12499
12529
12507
12560
12640
12685
12749
12750
12756
12880
12996
13049
13094
13052
12945
12800
12648
12549
12484
12387
12027
11826
11673
11572
11440
11344
11103
11015
10935
10924
10953
11047
11207
11382
11488
11511
11662
12084
12331
12502
12636
12673
12711
12768
12803
12810
12824
12824
12836
12801
12764
12720
12695
12805
12813
12795
12741
12712
12653
12528
12361
12159
11886
11576
11284
11295
11311
11479
11594
11921
12056
12108
12171
12221
12401
12348
12266
12217
12204
12199
12155
12076
12009
11947
11956
12180
12355
12553
12608
12528
12469
12302
12162
12070
12079
12204
12521
12573
12536
12386
12193
12036
11871
11843
11808
11632
11394
10834
10493
10240
10000
9958
10100
10843
11308
11703
11991
12222
12442
12826
12964
13061
13185
13250
13412
13502
13564
13630
13702
13690
13415
13266
13149
13089
13043
12859
12747
12676
12484
12113
11406
11146
10993
10851
10760
10755
10926
11030
11152
11343
11509
11857
12059
12246
12296
12338
12448
12622
12622
12633
12644
12657
12591
12563
12584
12616
12617
12602
12639
12667
12713
12697
12660
12685
12685
12663
12610
12563
12466
12346
12289
12145
11963
11818
11558
11425
11388
11466
11533
11570
11410
11266
11181
11161
11238
11514
11687
11864
12081
12280
12750
13029
13306
13458
13527
13678
13751
13737
13665
13555
13435
13196
12889
12525
12227
11913
11073
10644
10218
9876
9633
9419
9354
9450
9707
10049
10312
10537
10640
10818
11033
11307
12027
12392
12756
13103
13448
13735
13873
13852
13812
13726
13597
13393
13250
13139
12986
12954
12978
12782
12727
12663
12659
12657
12535
12409
12221
12053
11851
11651
11573
11573
11634
11699
11746
11799
11813
11825
11798
11713
11621
11633
11635
11743
11885
12044
12259
12368
12506
12622
12774
12814
12646
12492
12412
12427
12515
12927
13023
13062
13003
12883
12393
12158
11950
11902
11819
11686
11730
11800
11829
11759
11728
11660
11574
11526
11459
11319
11090
11049
11047
11053
11161
11295
11683
12001
12350
12625
12788
12948
13032
13104
13169
13205
13222
13092
13027
12937
12846
12802
13051
13201
13199
13124
13066
12814
12535
12183
11827
11517
11257
10866
10761
10812
11023
11189
11467
11560
11636
11604
11448
11178
10748
10808
11078
11418
11692
12289
12645
12981
13184
13272
13315
13260
13105
12961
12844
12733
12410
12320
12212
12152
12207
12661
12881
13118
13245
13202
13074
12674
12400
12158
11988
11846
11468
11380
11266
11129
11086
11122
11206
11188
11035
10894
10751
10501
10521
10735
11072
11453
12355
12687
12909
13121
13175
13141
12974
12882
12886
12898
12911
12830
12817
12728
12717
12759
12851
12949
12951
12872
12797
12773
12722
12617
12580
12496
12381
12244
12192
12039
11978
11952
11958
12008
12073
12141
12190
12213
12036
11926
11781
11625
11507
11458
11472
11526
11512
11508
11602
11696
11704
11811
11995
12175
12451
12571
12638
12718
12864
13074
13434
13502
13602
13651
13707
13582
13452
13214
12861
12470
12082
11271
11002
10719
10350
10082
9781
9776
9849
9982
10010
9995
10085
10271
10509
10990
12450
13029
13431
13732
13884
13893
13751
13606
13560
13692
13831
13810
13726
13563
13372
13135
12521
12192
11938
11682
11364
11110
10729
10560
10419
10341
10381
10761
11081
11335
11578
11784
11883
11844
11894
12014
12175
12314
12449
12480
12518
12502
12544
12545
12555
12652
12815
12965
13016
12969
12896
12819
12813
12768
12771
12804
12857
12876
12877
12864
12662
12477
12253
12094
11879
11401
11245
11253
11330
11439
11553
11617
11723
11906
12047
12145
12310
12362
12422
12474
12475
12384
12345
12358
12530
12761
12994
13244
13151
12946
12715
12570
12452
12292
12136
12037
11984
11943
11898
11982
12079
12159
12145
11813
11506
11254
11022
10751
10251
10297
10595
10910
11195
11488
12159
12356
12417
12321
12254
12112
12083
12088
12226
12347
12417
12298
12146
12136
12232
12274
12303
12390
12491
12530
12545
12648
12745
12805
12846
12886
12859
12737
12652
12560
12467
12403
12267
12184
12124
12147
12196
12245
12263
12277
12291
12303
12293
12188
12110
11987
11915
11864
11849
11636
11538
11476
11459
11460
11555
11614
11666
11764
11945
12514
12704
12869
13086
13361
13566
13728
13723
13634
13475
13315
13384
13545
13430
13238
13065
12877
12046
11626
11293
10925
10497
9734
9616
9604
9646
9639
9665
9857
10183
10611
10986
11219
11364
11149
11028
11125
11408
11757
12474
12905
13339
13710
13965
14009
13789
13674
13557
13443
13322
12892
12715
12506
12280
12018
11737
11554
11512
11536
11714
11957
12454
12684
12940
13263
13463
13531
13492
13585
13662
13744
13988
14084
13878
13688
13490
13211
12607
12293
11894
11451
11064
10681
10167
10072
10025
10085
10140
10110
10017
9966
9856
9713
9606
9640
9850
10259
10871
11471
12495
12789
12943
12977
13009
13011
13054
13086
13073
13005
12988
12774
12707
12641
12576
12552
12580
12549
12455
12364
12216
12092
12300
12497
12682
12868
12986
13076
12962
12763
12534
12460
12702
12770
12742
12814
12957
13109
13428
13366
13106
12844
12672
12345
12199
12194
12355
12578
12700
13096
13178
13113
12941
12676
11972
11594
11313
11035
10945
10880
10789
10663
10431
10200
10069
9841
9688
9565
9470
9560
9974
10623
11062
11342
11654
12013
12731
13099
13512
13793
14102
14996
15129
15127
14916
14529
14164
13415
13020
12551
12097
11829
11406
11113
10771
10456
10179
9525
9152
8816
8634
8648
8965
9442
9991
10610
11259
11804
12193
12444
12606
12644
12681
12724
12707
12747
13192
13522
13784
14020
14253
14511
14474
14296
14174
14027
13524
13319
13174
13061
12965
12895
12623
12502
12344
12086
11929
11992
12018
12056
12077
12113
12264
12570
12714
12843
12962
12940
12565
12405
12213
11992
11694
11341
10806
10742
10686
10691
10719
10957
11245
11634
12096
12493
12811
12823
12857
12930
12993
12952
13168
13388
13581
13690
13643
13272
13072
12828
12397
11863
11313
10320
9934
9590
9300
9139
9162
9278
9494
9702
9957
10286
10657
11055
11735
12275
12884
13344
13695
14092
14958
15141
15067
14844
14551
13690
13067
12521
12032
11596
10966
10732
10533
10451
10425
10425
10191
10048
9908
9913
10173
10661
11329
12835
13494
14059
14566
14915
15080
14998
14957
14847
14570
14176
12956
12390
11954
11568
11192
10911
10942
11036
11083
11150
11168
11056
10895
10669
10563
10588
10853
11103
11447
11914
12456
12915
13486
13640
13754
13820
13766
13408
13214
13046
12878
12701
12478
12371
12265
12098
11829
11493
11293
11323
11258
11174
11150
11609
11911
12175
12426
12661
12805
12832
12912
13043
13000
12830
12470
12385
12331
12252
12174
12010
11549
11377
11331
11333
11364
11601
11744
11767
11769
11895
12450
12593
12667
12659
12663
12600
12626
12752
12743
12640
12496
12249
12100
11984
11867
11771
11843
11927
11836
11706
11627
11544
11546
11705
11919
12144
12231
11978
11945
11968
11938
11736
11537
11393
11637
12086
12527
12897
13545
13659
13503
13350
13290
13324
13613
13524
13335
13169
12986
12467
12323
12152
11923
11620
11338
11156
10919
10678
10430
10287
10332
10457
10520
10760
11030
11451
11888
12425
12964
13398
13656
13709
13534
13277
13081
12956
12744
12690
12752
12814
12786
12761
12323
12027
11820
11652
11385
10877
10665
10495
10350
10304
10602
10751
10927
11208
11553
11768
12402
12730
13003
13136
13185
13202
13139
13086
13073
13080
13143
13495
13589
13569
13512
13275
12344
11884
11519
11378
11462
11645
11727
11832
11871
11865
11858
12143
12325
12438
12528
12574
12473
12386
12336
12258
12084
11933
11840
11715
11584
11451
11235
10802
10773
10882
11152
11560
12023
12868
13194
13474
13660
13795
13668
13509
13366
13267
13212
13043
12985
12883
12676
12403
12069
11317
10873
10386
10066
9947
10013
10860
11385
11856
12331
12689
12913
13079
13187
13273
13341
13376
13273
13153
12972
12754
12551
12251
11963
11658
11392
11070
10665
10133
10084
10199
10355
10500
10757
11006
11323
11455
11597
11907
12735
13089
13377
13584
13658
13626
13520
13479
13441
13248
12656
12406
12209
12086
11966
11750
11283
11142
11200
11389
11693
12205
12358
12587
12801
12920
12949
12994
12948
12835
12675
12570
12551
12558
12534
12437
12261
11647
11335
11220
11272
11417
11686
12180
12160
12013
11832
11758
11761
11865
12039
12223
12352
12381
12311
12274
12235
12120
12084
12332
12489
12581
12733
12993
13250
13476
13370
13246
13170
13131
12989
12938
12740
12452
12090
11571
11350
11199
11088
10898
10609
9852
9345
8968
8830
9036
9535
10176
10992
11829
12512
12976
13377
13524
13620
13612
13497
13161
12999
12970
12838
12671
12554
12341
12246
12187
12253
12288
12397
12439
12524
12622
12746
12666
12550
12401
12183
12014
11934
11878
11910
11925
12010
12202
12546
12607
12673
12688
12694
12660
12639
12718
12887
13031
13083
12873
12812
12846
12839
12631
11692
11239
10684
10208
9835
9681
9746
9887
10001
10081
10646
11041
11432
11805
12120
12692
12973
13295
13502
13488
13314
13262
13240
13182
13097
12961
12457
12039
11510
11098
10921
11243
11469
11781
12134
12458
12749
13097
13104
13074
12990
12825
12602
12561
12627
12686
12683
12636
12646
12656
12521
12354
12194
11896
11703
11502
11282
11201
11121
11228
11421
11647
11824
11936
11869
11822
11804
11825
11812
11961
12203
12525
12797
13027
13143
13117
13064
12960
12822
12721
12575
12446
12378
12304
12292
12161
11866
11556
11344
11195
11115
11213
11429
11707
11976
12165
12486
12562
12518
12425
12360
12307
12282
12330
12300
12210
12161
12239
12207
12180
12085
11918
11736
11760
11894
12046
12095
12133
12156
12072
12008
11967
12028
12136
12307
12578
12763
12768
12728
12557
12494
12485
12375
12140
11777
11640
11591
11676
11709
11885
11949
11943
11999
11975
11904
11750
11732
11694
11780
11966
12381
12558
12661
12759
12820
12836
12790
12775
12784
12756
12704
12594
12614
12616
12500
12360
12233
12015
11911
11762
11702
11734
11958
12046
12079
12051
12015
11942
11930
12005
12001
11978
11953
11853
11829
11831
11822
11824
11962
11993
12087
12170
12191
12265
12388
12270
12145
12084
12076
12231
12280
12259
12268
12271
12228
12175
12253
12390
12415
12405
12479
12512
12538
12467
12338
12133
12105
12142
12203
12264
12290
12287
12253
12290
12252
12205
11938
11863
11740
11662
11689
11748
11921
12131
12303
12360
12357
12360
12298
12140
11994
11900
11905
12054
12240
12384
12438
12539
12604
12582
12508
12399
12231
11983
11933
11888
11765
11546
11335
11051
11041
11146
11187
11302
11907
12287
12575
12730
12758
12564
12551
12523
12545
12598
12717
12905
12971
13063
13189
13306
13265
13140
12918
12633
12347
12134
11982
11957
11941
11871
11751
11529
11421
11355
11356
11391
11334
11230
11179
11263
11442
11648
12118
12337
12426
12443
12354
12197
12168
12142
12160
12223
12289
12496
12594
12681
12855
12948
12957
12905
12786
12650
12521
12397
12159
12156
12158
12138
12110
12087
12047
12014
12063
12058
12170
12322
12393
12343
12204
11989
11794
11847
11937
12052
12105
11954
11852
11771
11703
11658
11612
11585
11789
12072
12335
12520
12557
12465
12446
12399
12290
12166
12285
12387
12389
12389
12302
12262
12260
12143
12007
11955
11804
11807
11878
11946
12023
12193
12692
12836
12831
12794
12713
12427
12272
12153
12041
11942
11859
11919
12000
12051
12058
11927
11758
11843
11909
11905
11854
11939
12033
12111
12254
12366
12512
13062
13106
13053
12955
12828
12607
12416
12243
12202
12185
12131
12094
12085
11906
11672
11414
10741
10669
10814
11025
11264
11890
12257
12553
12723
12647
12472
12208
12206
12203
12204
12264
12368
12320
12208
12077
11925
11830
11951
12178
12410
12626
12678
12443
12257
12156
12088
12088
12368
12479
12568
12658
12723
12725
12561
12408
12283
12179
12094
11845
11765
11686
11581
11572
11574
11791
12011
12254
12395
12451
12274
12174
12165
12270
12360
12417
12457
12407
12381
12371
12338
12357
12335
12294
12200
12170
12282
12314
12299
12234
12193
12152
12112
12178
12199
12177
12102
12005
11990
12021
12007
11942
11946
11958
11915
11906
11931
12009
12231
12281
12306
12296
12225
12164
12165
12110
12008
11901
11829
11581
11506
11582
11714
11892
12030
12048
12085
12152
12192
12231
12605
12815
13003
13051
13060
12911
12790
12689
12555
12457
12440
12502
12421
12278
12079
11984
11657
11379
11220
11200
11272
11642
11777
11907
12083
12205
12242
12094
11878
11632
11575
11714
12104
12246
12384
12464
12493
12518
12641
12687
12666
12635
12647
12732
12744
12730
12719
12547
12111
11921
11768
11731
11797
