12022
12055
12113
12029
11996
11994
11996
12004
11995
11951
11925
11955
11951
11904
11913
11939
11954
11997
12036
12021
12014
11961
11940
11967
11984
11954
12026
12053
12008
11975
11976
11938
11890
11919
11944
11942
11970
12002
12001
11977
11894
11888
11882
11875
11866
11923
11967
11980
11999
11977
11969
11942
11983
12061
12093
12099
12071
12046
12045
12035
12060
12031
11969
11952
11982
11971
11921
11908
11903
11895
11840
11867
11970
11988
12006
12000
11955
11950
12012
12026
11997
12019
12062
12022
11992
11967
11948
11980
11990
11972
11965
11950
11938
11925
11897
11824
11845
11879
11903
11975
12028
12015
12022
11979
11957
11982
11996
11953
12029
12091
12055
12011
12037
11968
11976
11971
11950
11934
11961
11972
11984
11893
11825
11896
11857
11872
11921
11999
11988
11981
11961
11927
11973
12002
12008
12006
12054
12072
12054
12068
12014
12000
12012
12021
11965
11942
11916
11960
11958
11888
11877
11872
11904
11948
11994
12024
12014
12012
11973
11921
11961
12006
11963
12009
12062
12098
12067
12051
12015
11980
11947
11929
11954
11969
11966
11989
11937
11880
11888
11894
11901
11940
11997
11938
11977
11996
11966
11991
12013
11995
11956
12007
12064
12024
12018
12019
12054
12012
11971
11947
11961
11992
11966
11945
11842
11919
11939
11885
11901
11962
11986
11996
12005
11973
11948
11980
11978
12002
12038
12076
12056
12056
12070
12071
12047
11975
11973
11948
11935
11951
11927
11795
11754
11821
11756
11745
11821
11883
11966
12024
11934
11970
12004
11996
11957
12007
12060
12077
12063
12007
11995
12074
12022
12011
11969
11942
11958
12024
11963
11872
11907
11921
11872
11908
11912
11951
11969
11956
11931
11944
11974
11982
11993
12061
12076
12038
12069
12083
12034
12016
11985
11985
11952
11930
11993
11935
11833
11802
11879
11821
11861
11934
11973
11993
11986
11921
11960
12014
12039
11983
11981
12029
12060
12047
12033
11964
12019
12010
11987
11970
11973
11974
11973
11970
11903
11885
11894
11885
11898
11975
11965
11963
11942
11927
11914
11941
11998
12003
12057
12038
12020
11986
12041
12011
12038
12023
11967
11925
12001
11999
11992
11921
11872
11838
11872
11891
11934
11983
12004
11952
11974
11987
11988
11990
11950
12075
12078
12008
12018
12059
12048
12029
11994
11979
11948
11986
12007
11973
11929
11872
11877
11895
11886
11897
11933
11953
11941
11954
11983
12018
12008
11944
12026
12046
11980
12019
12045
12016
11993
12010
12020
11989
12025
11962
11941
11961
11968
11937
11951
11958
11986
12045
12049
12040
11992
11923
11901
11882
11832
11861
11954
11969
11976
11990
11987
11952
11912
11896
11909
11915
11925
11859
11890
11893
11887
11924
11933
11940
11989
12007
12045
12002
11995
11966
11990
12088
12129
12175
12237
12244
12283
12264
12254
12222
12187
12173
12094
12077
12073
11984
11944
11754
11681
11643
11649
11652
11653
11560
11431
11378
11386
11481
11831
11889
11950
11993
12026
12104
12097
12135
12128
12098
12108
12144
12148
12174
12197
12170
12092
12032
12036
12047
12123
12165
12169
12169
12148
12065
12015
12024
11960
11924
11986
11977
12037
12165
12147
12130
12070
11974
11798
11706
11651
11606
11551
11489
11589
11663
11719
11837
11935
12112
12151
12202
12195
12178
12182
12218
12164
12188
12239
12231
12179
12176
12169
12161
12155
12086
12083
12116
12135
12112
12070
11841
11815
11781
11808
11864
11960
11939
11929
11896
11852
11828
11812
11760
11713
11756
11723
11733
11789
11808
11847
11849
11683
11591
11582
11731
11819
11815
11799
11892
12058
12156
12193
12285
12251
12213
12235
12187
12081
11849
11800
11835
11914
11997
11980
11842
11799
11787
11783
11908
11971
11995
12032
12083
12154
12129
12059
12065
12055
12082
12106
12113
12048
12109
12151
12189
12104
12020
11954
11857
11903
12040
12000
11918
11847
11791
11716
11727
11747
11756
11844
11946
12064
11996
11935
11891
11800
11971
12083
12160
12188
12215
12177
12109
12151
12227
12160
12050
11749
11620
11514
11521
11581
11641
11784
11859
11899
11964
12041
12200
12122
12027
12060
12020
12103
12164
12184
12166
12127
12065
11977
12022
12092
12109
12129
12103
12087
12018
12021
11952
11907
11984
11972
11930
11847
11778
11597
11577
11505
11590
11690
11868
11946
12031
12169
12198
12188
12150
12179
12233
12199
12225
12364
12374
12423
12410
12387
12348
12145
12005
11998
11963
11888
11764
11730
11653
11541
11425
11295
11342
11495
11525
11539
11590
11695
11715
11812
11851
11899
12068
12088
12144
12161
12276
12333
12295
12245
12113
12020
11904
11751
11736
11727
11750
11810
11900
11937
11886
11887
11901
11937
11977
12033
12103
12191
12268
12313
12314
12346
12364
12410
12407
12342
12266
12108
11969
11882
11922
12044
12044
11904
11703
11595
11611
11700
11855
12025
12094
12112
12115
12073
12015
11921
11699
11713
11660
11706
11765
11861
11845
11837
11809
11793
11853
11992
12043
12096
12044
11968
11988
11979
11982
12052
12094
12133
12280
12283
12268
12244
12248
12200
12157
12161
12159
12116
12105
12206
12327
12502
12625
12798
12800
12663
12505
12278
12003
11849
11712
11667
11662
11594
11514
11236
10990
10740
10613
10689
10930
11256
11333
11406
11433
11476
11710
11783
11899
12013
12204
12599
12757
12826
12782
12681
12560
12456
12445
12317
12174
12049
11922
11929
11962
12030
12068
12032
11642
11492
11430
11374
11351
11335
11245
11155
11155
11236
11372
11768
11990
12163
12256
12241
12398
12442
12444
12439
12447
12446
12406
12361
12282
12237
12246
12184
12231
12231
12264
12289
12366
12413
12473
12483
12443
12417
12363
12273
12132
12004
11912
11815
11768
11667
11587
11653
11756
11751
11700
11612
11487
11359
11144
11187
11276
11254
11277
11402
11539
11691
11786
11933
12011
12119
12165
12216
12234
12236
12196
12265
12307
12373
12459
12553
12828
12889
12818
12705
12560
12436
12383
12378
12304
12216
12212
12234
12287
12268
12219
12059
11535
11350
11154
10984
10785
10316
10303
10463
10649
10891
11194
11959
12237
12431
12563
12717
12844
12863
12907
12950
12932
12940
12910
12849
12752
12697
12674
12550
12456
12353
12253
12138
11683
11393
10976
10574
10307
10250
10589
10657
10716
10793
10859
11073
11189
11341
11553
11684
12024
12105
12202
12275
12306
12454
12632
12633
12681
12722
12732
12560
12443
12443
12488
12505
12532
12441
12336
12148
11959
11754
11440
11332
11286
11354
11412
11487
11645
11766
11868
11921
11961
12039
12107
12190
12260
12265
12273
12203
12137
12083
12122
12169
12242
12264
12256
12274
12204
12308
12352
12299
12283
12339
12381
12355
12362
12309
12291
12465
12696
12662
12589
12524
12448
12120
11906
11745
11588
11478
11494
11542
11521
11416
11334
11265
11190
11257
11365
11437
11381
11316
10921
10766
10760
10782
10818
11214
11660
12089
12578
13004
13299
13472
13373
13326
13242
13106
12883
12752
12741
12683
12679
12705
12676
12576
12390
12056
11665
10547
9972
9493
9119
8818
8765
8936
9206
9615
10114
10553
10975
11402
12227
12513
12690
12851
12944
13278
13357
13454
13595
13669
13530
13424
13289
13152
13084
13047
12721
12618
12571
12538
12509
12224
11946
11673
11428
11271
11160
10860
10840
10971
11007
11034
11098
11145
11268
11508
11703
11807
11844
11945
11979
12016
12107
12183
12254
12273
12335
12383
12396
12395
12413
12429
12474
12538
12554
12435
12341
12352
12331
12316
12291
12265
12299
12352
12461
12490
12463
12405
12256
12030
11736
11650
11595
11485
11311
11068
11034
11114
11136
11168
11147
11286
11337
11345
11380
11447
11772
12016
12222
12343
12422
12538
12608
12647
12685
12824
12920
13004
12944
12876
12788
12740
12749
12711
12639
12526
12439
12409
12091
11928
11643
11392
11320
11418
11414
11364
11297
11214
11140
10987
11059
11190
11221
11232
11626
11840
11884
11995
12301
12877
12988
13014
13002
12887
12794
12473
12227
11905
11701
11557
11073
10824
10784
10911
11113
11223
11195
10946
10578
10266
10061
9650
9530
9569
9728
9985
10293
10752
11249
11677
12062
12831
13138
13311
13457
13588
13526
13456
13376
13313
13299
13327
13258
13195
13111
12998
12890
12661
12664
12694
12638
12537
12442
12330
12298
12273
12326
12283
12054
11986
11927
11853
11781
11718
11622
11595
11600
11639
11756
11892
11991
12015
11947
11915
11901
11881
11887
11962
12064
11993
11953
12030
12093
12062
12100
12224
12191
12131
12126
12114
12101
12109
12163
12181
12151
12184
12329
12390
12536
12610
12532
12415
12160
12168
12167
12099
12106
11864
11653
11518
11366
11257
10960
10939
10978
11051
11138
11279
11471
11700
11954
12078
12083
12114
12087
12076
12142
12209
12394
12500
12385
12158
12012
11899
11755
11700
11566
11488
11388
10872
10522
10105
9647
9221
8994
8931
9024
9453
9998
10709
11511
12831
13340
13662
13917
14065
14253
14484
14394
14225
14129
13973
13575
13483
13370
13183
13011
12610
12268
11788
11279
10839
10485
10023
9901
9852
9809
9865
9984
10337
10756
11115
11507
12127
12348
12490
12560
12622
12755
12850
12994
13000
12938
12835
12623
12566
12604
12641
12649
12681
12713
12695
12583
12504
12529
12562
12565
12632
12656
12706
12699
12555
12381
12217
12060
11626
11450
11314
11236
11261
11238
10998
10907
10837
10768
10697
10574
10558
10646
10824
11014
11303
12064
12582
12962
13204
13364
13427
13374
13411
13481
13439
13140
13156
13169
13103
12978
12859
12450
12149
11753
11362
10916
9888
9558
9273
8995
8762
8627
8553
8622
9098
9796
10438
10915
11338
11581
11554
11388
11403
11579
11825
12241
12966
13343
13588
13753
13856
13883
13783
13695
13612
13500
13384
13200
12972
12778
12584
12446
12346
11987
11865
11788
11704
11653
11460
11298
11222
11176
11306
11922
12078
12143
12130
12116
12161
12442
12615
12805
12945
13010
12912
12882
12803
12735
12693
12671
12712
12694
12630
12521
12409
12334
12445
12517
12364
12129
11542
11005
10450
9854
9202
8573
8086
7808
7800
8147
8704
9383
10186
10906
11905
12270
12527
12719
12782
13037
13115
13175
13194
13151
13101
13025
13001
12953
12945
12920
12827
12800
12833
12938
13064
13135
13125
13031
12898
12750
12645
12482
12292
12155
12080
12047
12038
12281
12342
12307
12200
12000
11587
11362
11122
10930
10847
10582
10533
10668
10844
11178
11568
11772
11660
11551
11559
11645
11875
12006
12239
12346
12382
12462
12763
12840
12896
12933
12928
12750
12499
12187
11918
11644
11118
10964
10852
10864
10896
11021
11199
11141
11003
10939
11076
11791
12152
12595
13005
13136
13091
12781
12585
12311
12035
11754
11143
11011
11073
11306
11612
11939
12211
12148
12055
11856
11542
10708
10392
10315
10523
10860
11668
12036
12270
12540
12834
13053
13382
13513
13608
13560
13493
13229
12963
12641
12350
12009
11782
11497
11490
11625
11795
11814
11847
11887
11921
11913
11913
11940
11900
11830
11746
11764
11798
11930
12031
12108
12077
12050
11962
11981
12043
12164
12216
12296
12395
12424
12432
12368
12259
11905
11715
11535
11352
11233
11204
11199
11278
11375
11564
11698
12188
12487
12813
13027
13166
13302
13274
13281
13248
13191
13073
12507
12196
11965
11787
11676
11482
11410
11329
11262
11227
11217
10926
10775
10591
10442
10414
10493
10446
10486
10504
10559
10599
10690
10931
11213
11593
11991
12889
13249
13480
13652
13747
13706
13658
13589
13546
13487
13395
13165
13131
13069
12909
12818
12593
12532
12451
12278
11934
11488
11239
11152
11120
11183
11365
11726
11813
11799
11780
11717
11506
11447
11405
11233
11073
11043
10873
10626
10331
9890
9617
9552
9548
9580
9794
10127
10556
11813
12442
12882
13272
13583
13692
13622
13522
13275
12945
12369
12138
12046
12124
12228
12372
12704
12917
13004
12946
12795
12508
12412
12342
12276
12291
12226
12220
12279
12339
12445
12532
12702
12656
12627
12720
12764
12628
12247
12144
12042
11964
11848
11879
12103
12347
12489
12476
11949
11601
11142
10601
10066
9777
9674
9638
9714
10210
10456
10638
10825
11067
11385
11912
12058
12117
12137
12175
12540
12743
12795
12842
13034
13232
13340
13336
13267
13156
13035
13016
13057
13082
13048
12946
12585
12406
12206
11935
11601
11288
10962
10755
10590
10420
10222
9874
9851
10029
10428
11015
11638
12166
12530
12847
12855
12765
12572
12369
12143
12074
12020
12082
12224
12586
12806
12954
13010
12981
12847
12580
12401
12285
12196
12224
12694
12817
12846
12831
12826
12815
12525
12228
11952
11712
11388
10639
10436
10247
10099
9984
9900
9937
10128
10388
10382
10335
10136
9900
9839
9925
10128
10651
10994
11385
11902
12420
12838
13091
13088
13007
13044
13155
13606
13838
14048
14104
14110
14015
13766
13666
13621
13545
13436
13386
13284
13100
12934
12764
12306
12051
11796
11504
11254
11045
10613
10274
10014
9813
9698
9621
9662
9893
10250
10663
11307
11595
11812
12082
12475
13122
13298
13355
13372
13432
13426
13201
13066
13025
13017
13002
12976
12898
12860
12742
12543
12240
12039
11926
11750
11723
11765
11791
11711
11544
11454
11488
11396
11245
11186
11049
10853
10659
10410
10114
9806
9600
9509
9453
9442
9478
9562
9751
10145
10666
11180
12162
12546
12854
13205
13534
14306
14587
14678
14673
14716
14754
14624
14492
14334
14169
13883
13380
13138
12933
12723
12430
11881
11642
11400
11067
10496
9728
9217
8561
8472
8596
9025
9553
10077
10677
11305
11878
12360
12732
12771
12758
12725
12659
12553
12169
11905
11748
11718
11815
11838
11888
12075
12175
12168
12125
12113
12089
12174
12259
12282
12603
12762
12793
12735
12737
12706
12566
12461
12614
12887
13159
13661
13835
13867
13812
13814
13621
13315
12938
12507
11954
11350
10480
10271
10197
10217
10256
10030
9695
9296
8864
8563
8338
8296
8525
8915
9498
10150
11007
11765
12422
13376
13664
13865
14005
14067
14039
13968
13877
13702
13466
13301
13377
13427
13269
13090
12865
12359
11991
11524
11136
10818
10503
10470
10607
10779
10956
11201
11480
11404
11337
11317
11343
11558
11758
11891
11926
12005
12196
12674
12755
12884
13024
13087
13029
13058
13063
13034
13013
12945
12649
12433
12184
11899
11579
11031
10978
10934
10917
11048
11745
11919
12017
12137
12261
12310
12421
12512
12534
12562
12526
12395
12212
11952
11729
11512
11108
9935
9455
9268
9487
9868
10436
11113
11755
12395
12946
13423
13452
13474
13537
13600
13553
13406
13285
13145
12997
12831
12590
12248
11848
11285
10682
9831
9602
9464
9440
9609
9955
10476
10989
11509
11780
11938
12148
12234
12179
12095
11996
11924
11989
11971
12173
12394
12498
12840
13104
13340
13513
13586
13488
13458
13345
13214
13102
12907
12715
12517
12389
12419
12558
12424
12193
12020
11854
11626
11101
10788
10415
10124
10068
10187
10356
10431
10408
10297
10253
10175
10208
10383
10685
11014
11671
12085
12473
12790
13010
13165
13399
13570
13658
13539
13406
13271
13367
13486
13449
13396
13351
12953
12682
12464
12260
12039
11715
11539
11444
11499
11636
11839
12291
12257
12250
12203
12202
12066
11898
11594
11258
10947
10442
10188
9978
9894
9916
9960
10075
10252
10531
11423
11825
12225
12701
13135
13345
13782
13803
13731
13684
13607
13553
13570
13540
13416
13261
13152
12665
12379
12113
11859
11540
10943
10755
10610
10435
10336
10428
10980
11229
11349
11202
10917
10533
10436
10411
10577
10858
11457
11639
11747
11814
11846
11878
11767
11826
11929
12030
12127
12314
12463
12531
12566
12671
12823
13201
13351
13459
13624
13799
13956
13850
13637
13438
13330
13106
12951
12854
12694
12513
12392
12111
11810
11482
11161
10894
10176
9729
9576
9482
9504
9664
9947
10247
10485
10781
11091
11517
11590
11584
11599
11691
11891
12115
12254
12460
12611
12706
12663
12467
12208
11956
11754
11598
11745
11842
12047
12348
12649
13089
13212
13218
13118
13039
13023
13080
13085
13077
13072
13114
12918
12676
12454
12262
12073
11914
11841
11684
11496
11346
11016
10847
10558
10370
10402
10429
10772
11016
11249
11395
11491
11684
11688
11790
11911
11930
11911
11995
11900
11796
11777
11864
12102
12292
12523
12729
12793
12685
12397
12341
12212
12094
12042
12072
12156
12274
12360
12424
12414
12471
12585
12706
12813
12869
12812
12724
12616
12378
12156
11658
11395
11161
11001
10896
10842
10645
10473
10315
10134
9998
10027
10349
10512
10708
11006
11432
12308
12527
12730
12892
13048
13233
13609
13721
13906
14128
14136
13920
13884
13807
13712
13547
13377
12892
12535
12150
11855
11636
11151
10954
10729
10380
9990
9588
9188
8892
8722
8603
8628
8857
9311
9935
10482
11502
11921
12302
12625
12893
13250
13339
13454
13537
13514
13406
13365
13373
13262
13206
13118
13128
13057
12909
12757
12658
12659
12672
12608
12532
12531
12493
12178
11988
11734
11518
11371
11142
11051
11037
11090
11161
11287
11407
11423
11388
11276
11025
10764
10721
10771
10968
11256
12065
12328
12448
12493
12608
12622
12433
12383
12376
12345
12263
12340
12459
12525
12555
12577
12589
12506
12413
12357
12290
12256
12139
12073
12016
12013
11996
11985
11911
11862
11835
11852
11859
11713
11623
11653
11680
11639
11649
11690
11784
11861
11939
12052
12291
12233
12162
12062
11974
11450
11160
10907
10650
10422
10470
10736
10966
11091
11148
11337
11721
11875
12190
12549
12788
13002
13104
13183
13188
13172
13179
13147
13007
12892
12726
12512
11987
11759
11587
11465
11399
11367
11334
11425
11548
11726
11840
11743
11511
11281
11068
11029
11257
11430
11496
11531
11644
11792
12272
12527
12675
12923
13103
13308
13381
13383
13300
13169
12981
12586
12500
12374
12145
11919
11661
11505
11367
11299
11251
11287
11427
11577
11573
11404
11170
10902
10952
10987
11102
11267
11546
11768
11911
12023
12128
12269
12482
12520
12534
12555
12536
12532
12435
12442
12426
12501
12420
12325
12318
12220
12075
12029
12071
12023
11990
11959
12023
11908
11821
11742
11592
11500
11372
11429
11531
11651
11813
11952
12170
12204
12210
12174
12203
12268
12392
12314
12205
12131
12126
12119
12146
12065
11858
11698
11574
11594
11561
11618
11700
11725
11674
11687
11743
11830
11850
11801
11733
11660
11692
11808
11925
12124
12250
12303
12299
12273
12285
12387
12439
12421
12392
12418
12282
12171
12131
12169
12115
12045
11895
11722
11631
11622
11638
11639
11619
11646
11667
11632
11565
11585
11601
11591
11678
11831
11937
12097
12160
12091
12067
12195
12302
12364
12333
12330
12377
12182
11953
11777
11629
11637
11752
11854
11949
12072
12251
12224
12265
12325
12320
12280
12119
12079
12043
11951
11813
11626
11467
11437
11478
11568
11554
11360
11421
11462
11597
11748
11915
12010
12136
12266
12385
12403
12429
12623
12727
12745
12732
12644
12560
12417
12299
12171
12037
11864
11860
11850
11805
11717
11755
11740
11631
11509
11366
11253
11131
11218
11349
11460
11661
12049
12083
12065
12073
12156
12173
12192
12245
12303
12316
12264
12397
12383
12474
12565
12601
12494
12464
12477
12344
12253
12162
12123
12160
12180
12147
12113
11857
11773
11857
11949
11930
11903
11887
11926
11992
11987
11839
11292
11258
11266
11298
11347
11545
11746
11906
11956
11899
11876
11786
11695
11579
11484
11325
11219
11308
11266
11255
11301
11446
11744
11955
12097
12147
12191
12221
12228
12202
12227
12389
12559
12492
12401
12305
12217
12204
12182
12228
12340
12501
12537
12256
12201
12245
12269
12311
12380
12308
12211
12111
12010
11977
11717
11561
11470
11369
11299
11604
11810
11888
12023
12132
12181
12123
12117
12163
12244
12320
12244
12204
12112
11985
11962
11949
11752
11478
11383
11398
11352
11397
11465
11516
11520
11559
11814
11953
12106
12187
12219
12220
12261
12297
12342
12434
12494
12507
12411
12318
12256
12214
12180
12194
12212
12186
12172
12172
12187
12106
12162
12186
12185
12143
12050
11849
11677
11461
11223
11086
11244
11435
11595
11817
12078
12046
11900
11649
11468
11409
11525
11539
11619
11741
11979
12492
12613
12663
12654
12682
12711
12502
12391
12473
12580
12514
12290
12178
11989
11727
11554
11287
11073
10923
10922
11069
11418
11903
12078
12181
12219
12210
12154
12037
11763
11627
11530
11425
11401
11559
11667
11813
12002
12340
12455
12439
12358
12320
12351
12321
12253
12216
12171
12164
12498
12695
12807
12793
12745
12528
12378
12279
12235
12127
11968
11387
11067
10829
10669
10623
10528
10582
10743
11008
11311
11704
12161
12239
12257
12300
12484
12746
12642
12475
12298
12108
11903
11903
11782
11590
11558
11608
11807
12005
12214
12261
12279
12140
12175
12181
12118
12123
12183
12461
12611
12751
12740
12708
12761
12845
12840
12787
12682
12564
12429
12360
12228
12132
12043
11919
11691
11237
10749
10362
9530
9187
8996
8970
9226
9743
10451
11198
11793
12250
12704
13378
13493
13431
13374
13276
13116
12831
12856
12902
12854
12834
12746
12592
12424
12233
12007
11802
11611
11472
11354
11267
11291
11690
11921
12026
12017
12019
11994
11984
12075
12204
12253
12302
12524
12514
12468
12379
12146
11842
11676
11435
11206
11023
10872
10817
10899
11093
11374
11550
11753
11975
12204
12363
12551
12766
12608
12477
12468
12567
12687
12920
12983
12983
12883
12690
12307
12082
11877
11686
11640
11587
11724
11700
11556
11225
10857
10595
10727
11049
11275
11430
11599
11615
11674
11765
11888
12035
12502
12698
12809
12842
12819
12591
12448
12272
12181
12166
12205
12349
12453
12385
12213
11974
11552
11391
11384
11372
11373
11370
11502
11554
11502
11529
11599
11516
11616
11800
12021
12154
12248
12336
12317
12283
12275
12344
12366
12336
12353
12311
12286
12243
12289
12383
12503
12663
12738
12684
12536
12449
12408
12398
12269
12291
12247
12116
12040
11861
11797
11640
11378
11115
11097
11457
11725
11926
12002
11978
11878
11841
11632
11467
11362
11330
11319
11094
10720
10381
10216
10658
11155
11585
11924
12259
12553
12515
12466
12378
12358
12501
12598
12499
12366
12203
12177
12214
12311
12407
12510
12581
12584
12341
12237
12120
11973
11679
11122
11148
11353
11627
11723
11785
11928
12082
12130
12149
12189
12299
12389
12442
12396
12303
12187
12096
11964
11851
11934
11990
11976
11966
11939
11912
11855
11807
11765
11786
11828
11922
11999
11902
11901
12027
12136
12263
12639
12795
12818
12813
12736
12628
12422
12391
12390
12404
12401
12269
12073
11872
11515
11193
10805
10624
10392
10189
10070
9978
9948
10108
10762
11224
11583
11954
12247
12547
12581
12528
12422
12431
12518
12572
12593
12665
12675
12592
12533
12509
12463
12393
12359
12285
12251
12246
12235
12140
12093
12003
12000
12038
12083
12114
12167
12135
12131
12097
12061
12044
12187
12191
12119
12083
12032
11896
11881
11862
11870
11879
12067
12053
12027
12024
12007
11993
11617
11349
11203
11222
11329
11602
11642
11664
11748
11760
11762
11751
11902
12130
12402
12447
12385
12277
12052
11759
11488
11227
11237
11458
11817
12069
12184
12218
12225
12158
12133
12095
12146
12147
12147
12136
12085
12074
11940
11935
11936
11953
12055
12131
12170
12203
12185
12144
12123
12114
12064
12043
12021
12009
11915
11824
11855
11893
11884
12000
11997
12028
12008
12040
12068
12038
12024
12058
12105
12175
12184
12155
12059
12015
12027
12061
12071
12022
11987
11987
11964
11830
11610
11464
11409
11475
11733
11821
11839
11912
11992
11973
11957
12020
12105
12169
12271
12305
12183
12131
12116
12054
12066
12156
12158
12132
12123
12111
11942
11798
11676
11637
11492
11314
11516
11677
11783
11823
11870
11808
11820
11921
11940
11772
11629
11605
11538
11531
11571
11721
11884
11984
12128
12249
12290
12350
12406
12333
12291
12293
12321
12135
12114
12116
12081
12075
12026
12007
11950
11971
12061
12149
12271
12361
12408
12325
12258
12284
12204
12047
11979
11983
11971
11786
11507
11259
11016
10943
11376
11675
11900
12077
12200
12136
12188
12245
12203
12096
12098
12171
12133
12185
12227
12179
12015
11955
11941
11964
11985
12014
11987
11958
11827
11870
11939
12000
12075
12117
12161
12201
12123
12105
12066
12042
12062
12124
12079
12036
11994
11888
11756
11465
11421
11272
11059
10951
11175
11385
11564
11705
11803
11881
11962
12035
12129
12216
12228
12256
12270
12263
12297
12298
12286
12294
12257
12244
12194
12151
12064
12088
12140
12148
12148
12106
12055
12030
12012
11927
11920
11798
11779
11821
11878
11968
12011
11937
11946
11959
11931
11943
12040
11988
12000
12074
12085
11986
11994
12022
11964
11893
11923
11960
11927
11959
11912
11857
11799
11828
11889
11925
11959
12041
12005
11954
11959
12002
12033
12065
12135
12152
12114
12041
12117
12110
12120
12214
12258
12184
12069
12042
12011
11987
11970
12036
12019
11971
11943
11929
11742
11624
11532
11516
11550
11573
11401
11293
11317
11465
11672
11983
12082
12179
12229
12307
12352
12448
12456
12469
12474
12429
12231
12071
11914
11715
11492
11298
11264
11308
11424
11574
11703
11971
12170
12282
12328
12369
12294
12276
12242
12214
12213
12153
12081
12079
12076
12027
11930
11845
11779
11677
11624
11718
11837
12051
12096
12146
12162
12167
12136
12123
12169
12145
12114
12012
11963
11938
11921
11855
11792
11791
11796
11864
11942
11996
11947
11955
11992
12005
12020
12053
12092
12048
12001
11966
11952
11902
11951
12049
12100
12084
12126
12090
12064
12041
12086
12085
12105
12222
12278
12277
12244
12081
12008
11926
11905
11929
12007
11960
11955
11942
11846
11685
11433
11174
10987
10980
11002
11316
11548
11803
12032
12176
12268
12308
12322
12285
12282
12272
11969
11856
11801
11758
11785
11851
12068
12079
12064
12040
12061
12158
12165
12235
12262
12277
12274
12312
12263
12151
12135
12182
12127
12147
12199
12214
12137
12040
11970
11892
11781
11743
11765
11704
11598
11409
11269
11202
11529
11736
11855
11939
12108
12197
12222
12233
12186
12142
12117
12136
12114
12108
12119
12118
12056
11961
12014
12032
11962
11932
12055
12044
11989
11999
11971
11914
11901
11947
12011
12086
12090
12024
12014
11998
11930
11929
11944
11968
12044
12081
12114
12111
12050
12044
12052
12048
12031
12020
12116
12221
12235
12205
12178
12164
12060
11952
11902
11940
11609
11440
11358
11287
11256
11439
11596
11631
11577
11582
11640
11791
11893
12013
12112
12148
12250
12265
12220
12167
12121
12013
11992
11993
12010
12004
12104
12192
12215
12161
12135
12150
12149
12096
11907
11716
11575
11484
11662
11734
11790
11853
11930
11950
11972
12032
12088
12128
12154
12253
12278
12306
12333
12302
12285
12243
12235
12218
12093
12020
11978
11935
11832
11759
11750
11775
11760
11676
11606
11482
11393
11491
11630
11773
11897
11927
11963
12044
12146
12242
12231
12222
12261
12254
12291
12308
12319
12238
12206
12168
12092
12045
12025
11984
11829
11722
11681
11703
11717
11806
11896
11963
12012
12094
12118
12217
12229
12176
12025
11901
11777
11630
11468
11234
11250
11323
11446
11641
11865
12248
12326
12333
12249
12306
12295
12307
12307
12322
12281
12215
11947
11850
11761
11739
11701
11801
11800
11868
11959
12019
12054
12091
12114
12110
12122
12105
11997
11961
11941
11872
11842
11939
12014
12050
12074
12064
12022
12057
12084
12180
12225
12287
12247
12220
12243
12195
12078
11982
11872
11819
11656
11467
11376
11322
11260
11213
11184
11216
11639
11810
11920
12083
12184
12205
12190
12161
12186
12238
12247
12197
12271
12276
12241
12220
12249
12143
12137
12115
12124
12115
12197
12255
12311
12308
12148
12151
12194
12210
12194
12187
12183
12109
11995
11850
11781
11754
11607
11448
11286
11100
11069
11008
11169
11359
11553
11854
12146
12417
12502
12563
12554
12497
12416
12361
12405
12387
12344
12418
12413
12339
12174
11972
11770
11364
11104
10963
10806
10801
11008
11515
11679
11761
11862
11888
12070
12202
12263
12234
12136
12012
12050
12055
12022
12082
12179
12317
12388
12387
12326
12336
12352
12349
12426
12433
12371
12332
12197
12152
12154
12116
12110
12058
12070
11969
11858
11766
11604
11277
11181
11172
11247
11369
11558
11637
11719
11821
11908
12105
12357
12432
12514
12516
12475
12475
12431
12305
12129
12022
11684
11487
11317
11191
11184
11259
11571
11735
11834
11933
12081
12259
12321
12415
12436
12423
12372
12372
12330
12315
12132
11986
11878
11929
11893
11860
11734
11540
11592
11636
11671
11709
11766
11821
11812
11829
11896
11966
12023
12081
12145
12165
12123
12139
12142
12096
12155
12268
12300
12235
12218
12245
12230
12200
12227
12151
12106
12137
12108
12003
11553
11508
11636
11744
11741
11879
11853
11809
11890
11922
11942
11868
11886
11874
11874
11931
12113
12161
12148
12181
12250
12248
12166
12125
12165
12147
12058
11873
11774
11784
11826
11866
12003
12032
12084
12137
12093
12027
11931
11860
11754
11672
11658
11749
11789
11837
11810
11698
11647
11676
11608
11608
11756
12054
12457
12564
12810
13038
13078
13085
13033
12847
12662
12569
12408
12237
12156
12041
11972
11937
11854
11661
11283
10784
10338
10065
9785
9763
9906
10080
10282
10505
10800
11119
11737
12047
12343
12576
12786
13008
12990
12980
12954
12897
12834
12656
12573
12526
12461
12375
12363
12314
12332
12377
12529
12642
12743
12815
12934
13018
12983
12802
12674
12485
12342
12216
12073
12021
11971
11764
11478
11192
10720
10479
10283
10084
10011
10028
10043
10148
10333
10595
10904
11549
11748
11971
12183
12448
12647
12704
12762
12787
12782
12834
12822
12765
12685
12643
12565
12505
12456
12459
12441
12360
12324
12298
12203
12236
12293
12274
12211
12218
12202
12129
12056
11980
11940
11867
11810
11785
11780
11864
11919
11895
11857
11771
11751
11724
11662
11661
11643
11754
11902
12041
12171
12312
12388
12379
12352
12374
12433
12389
12095
12023
11989
11928
12019
12267
12703
12741
12621
12327
11962
11160
10912
10805
10814
10950
11277
11504
11660
11737
11791
11778
11553
11443
11325
11207
11091
10849
10813
10864
10967
11247
11608
12278
12490
12718
12817
12818
12792
12801
12812
12941
13187
13370
13555
13567
13512
13343
13177
12917
12697
12498
12330
12176
11859
11541
11237
11007
10817
10616
10476
10417
10296
10137
10032
9955
9954
10063
10271
10610
10982
11360
12030
12330
12531
12712
12846
12929
12950
13052
13140
13130
13139
13137
13109
13041
12927
12803
12749
12650
12573
12492
12442
12362
12353
12246
12164
12113
11943
11677
11445
11432
11393
11258
11148
11060
11074
11120
11217
11316
11551
11769
12026
12287
12432
12603
12839
12783
12802
12756
12675
12493
12414
12322
12333
12318
12348
12248
12078
11910
11755
11543
11033
10880
10872
10884
10907
10984
10958
11029
11182
11387
11664
12184
12446
12683
12791
12795
12638
12587
12513
12442
12400
12304
12192
12175
12103
12038
11989
11969
12006
11979
11873
11694
11257
11041
10907
10894
10944
11057
11590
11835
12052
12323
12407
12567
12824
13055
13109
13087
13040
12795
12699
12600
12465
12326
11962
11771
11594
11475
11353
11302
11331
11343
11417
11462
11537
11609
11571
11476
11311
11298
11675
11819
11865
11941
12047
12112
12284
12341
12458
12505
12532
12539
12546
12505
12466
12456
12390
12023
11642
11308
10907
10484
10082
10153
10391
10779
11249
11956
12251
12556
12777
12907
13094
13310
13314
13293
13243
13117
12952
12934
12932
12871
12739
12607
12389
12160
11988
11814
11606
11199
11169
11166
11148
11231
11296
11351
11407
11506
11614
11758
12121
12425
12711
12987
13232
13360
13322
13190
12921
12642
12409
12007
11813
11517
11220
11017
10586
10443
10219
10045
9955
9936
9950
10114
10651
10859
10977
10986
10870
10834
11124
11314
11507
11747
12030
12558
12866
13141
13339
13430
13505
13629
13710
13690
13570
13489
13414
13292
13215
13090
12919
12534
12386
12217
12055
11869
11738
11474
11243
10957
10840
10817
10733
10670
10589
10563
10623
10814
11221
11526
11843
12138
12329
12763
12940
13026
12998
12933
12833
12742
12652
12644
12729
12712
12652
12653
12585
12492
12416
12246
12050
11786
11507
11288
11170
11000
11033
11065
11087
11132
11287
11306
11416
11568
11663
11688
11760
11792
11829
11974
12167
12452
12592
12651
12616
12639
12481
12403
12392
12412
12565
12685
12442
12237
12127
11956
11748
11567
11591
11628
11698
11737
11859
12339
12534
12748
12923
13023
12986
12944
12883
12716
12552
12338
12131
11885
11653
11320
10823
9588
8953
8453
8178
8350
8735
9235
9837
10398
10908
11237
11411
11553
12205
12435
12664
13063
13404
13828
14046
14220
14258
14224
14088
14061
14052
13992
13949
13907
13498
13206
12964
12754
12580
12193
11844
11486
11163
10898
10661
10400
10233
10142
10074
10021
9997
10024
10103
10140
10216
10214
10246
10172
10109
10296
10754
11280
11914
12026
12048
12149
12291
12559
12688
12809
12927
13077
13269
13532
13524
13449
13425
13371
13128
13012
12868
12719
12566
12420
12065
12012
12036
12041
12054
11979
11890
11868
11910
12029
12236
12234
12194
12156
12104
12012
12013
12062
12097
12168
12216
12354
12360
12342
12214
12138
12101
12109
12045
11947
11909
11869
11829
11714
11672
11691
11728
11843
12044
12233
12307
12341
12280
12270
12295
12343
12376
12479
12665
12853
13106
13217
13293
13459
13539
13439
13427
13491
13457
12838
12224
11469
10633
9672
8797
8016
7580
7524
7687
7925
8161
8339
8472
8509
8426
8166
8207
8489
8951
9745
10654
11427
12161
12804
13374
14021
14087
14185
14319
14522
14673
14689
14648
14568
14449
14383
14130
13973
13880
13743
13608
13443
13083
12905
12824
12693
12535
12160
11980
11852
11706
11551
11388
11215
11233
11162
11093
10939
10656
10656
10639
10653
10719
11031
11336
11650
11882
11995
12110
12270
12367
12512
12729
12909
12930
12969
12920
12834
12708
12607
12379
12326
12368
12372
12306
12164
12132
12115
12084
12085
12068
11945
11785
11526
11209
10911
10486
10473
10520
10695
10891
11446
11616
11783
12006
12072
12056
11830
11676
11589
11542
11590
11759
11839
11934
11985
12009
12083
12505
12623
12677
12724
12833
13173
13231
13236
13223
13179
13083
12963
12838
12697
12511
12313
12060
12143
12265
12368
12380
12082
11693
11287
10790
10399
10113
9694
9566
9492
9613
9895
10365
10881
11317
11596
11817
12194
12336
12379
12417
12337
12163
12234
12336
12437
12519
12728
12743
12734
12697
12815
12963
13279
13450
13563
13552
13447
13076
12858
12604
12353
12090
11797
11433
11331
11236
11141
11149
11016
10828
10529
10262
10028
9768
9785
9949
10237
10525
10986
11366
11676
11904
12426
12708
12963
13244
13540
13750
13771
13759
13650
13545
13159
13030
12951
12982
12987
12920
12442
12067
11653
11300
11093
10637
10430
10450
10492
10630
10779
11246
11676
12117
12501
12736
12697
12534
12354
12202
12173
12069
11758
11682
11722
11905
12130
12455
12509
12422
12262
12163
12161
12026
11812
11677
11602
11644
11664
11702
11707
11700
11732
12019
12267
12463
12507
12416
12208
11584
11481
11506
11537
11536
11625
11767
11868
11991
12069
11943
11859
11814
11818
11789
11755
12000
12107
12193
12234
12326
12960
13394
13613
13590
13451
13283
12497
12080
11772
11461
11137
10687
10696
10764
10837
10855
10789
10545
10413
10307
10297
10156
10084
10251
10565
11001
11503
12300
12370
12313
12338
12443
12618
13193
13399
13503
13557
13546
13427
13358
13275
13166
13042
12929
12833
12736
12580
12521
12455
12114
12076
12091
12120
12071
12003
11998
11974
11857
11635
11407
11139
11112
11209
11298
11208
11017
10948
10946
11156
11505
11859
12280
12545
12849
13128
13263
13381
13342
13265
13194
13163
12841
12581
12379
12198
12050
11843
11551
11265
10916
10624
10457
10158
10089
10138
10263
10371
10501
11044
11324
11563
11743
11972
12109
12188
12263
12282
12261
12282
12231
12165
12071
12011
11982
12125
12131
12243
12337
12530
12830
12916
13025
13093
13161
13119
12840
12629
12440
12105
11696
10845
10632
10865
11411
11911
12263
13142
13531
13743
13701
13533
13102
12916
12656
12418
12281
11959
11844
11831
11860
11935
11954
12119
12143
12016
11731
11259
10346
9987
9720
9687
9728
9840
10017
10205
10393
10652
11142
11242
11251
11323
11306
11186
10431
10095
9913
9837
9921
10164
10549
11059
12230
12825
13300
13544
13704
13732
13872
13981
14075
14057
13957
13758
13629
13469
13307
13196
12896
12786
12665
12575
12500
12470
12382
12386
12336
12146
11916
11336
11072
11027
11063
11128
11490
11618
11712
11919
12121
12282
12393
12450
12559
12650
12648
12460
12374
12257
12104
11821
11448
10717
10572
10596
10788
11096
11509
11468
11414
11506
11736
12268
12567
12923
13189
13355
13397
13331
13203
13106
13004
12839
12289
11935
11580
11115
10715
10518
10915
11405
11927
12326
12631
12952
12597
12075
11519
10860
9722
9514
9601
9908
10289
10750
11220
11550
11732
11821
11833
11780
11666
11513
11323
10995
11077
11303
11533
11880
12873
13329
13542
13616
13710
13782
13667
13545
13503
13474
13389
13277
13198
13059
12809
12476
12081
11216
10932
10816
10836
10940
11219
11402
11575
11704
11761
11955
11982
11957
11948
11882
11806
11619
11623
11626
11692
11630
11584
11620
11681
11612
11438
11165
10917
11025
11179
11392
11709
12480
12822
12926
12959
12994
13120
13032
12732
12383
11995
11645
11157
11089
11151
11251
11454
11613
11631
11688
11836
12058
12408
13134
13394
13472
13396
13229
13100
13153
13191
12993
12599
12161
11478
11222
10993
10694
10363
9958
9802
9632
9560
9828
10326
10923
11540
12224
12803
13461
13575
13611
13688
13805
13816
13742
13685
13586
13439
13263
12754
12396
12054
11733
11292
10387
9987
9587
9320
9368
9555
9852
10171
10543
10938
11271
11827
12110
12264
12352
12459
12600
13083
13231
13454
13529
13530
13564
13538
13427
13290
13157
12809
12558
12202
11769
11298
10878
10272
10212
10154
10187
10426
11112
11363
11537
11711
11847
12038
12628
12763
12760
12781
12820
12884
12718
12487
12250
11999
11710
11468
11401
11493
11743
12027
12473
12458
12285
12045
11843
11527
11284
10957
10627
10436
10435
10822
11136
11505
11935
12274
12824
12915
12909
12841
12824
12882
13014
12989
13019
13014
12974
12686
12500
12305
12230
12207
12093
12015
11858
11706
11562
11352
10792
10691
10720
10868
11089
11647
11704
11730
11853
12094
12410
12559
12415
12206
11934
11843
11759
11638
11504
11378
11449
11610
11705
11851
11840
11815
11761
11731
11683
11875
12242
12642
13020
13186
13233
13143
12937
12703
12418
12208
12127
12113
12180
12399
12520
12604
12454
12061
11564
10943
10637
10461
10452
10507
10616
10934
11272
11445
11581
11788
11644
11529
11519
11513
11576
11867
12006
12049
12107
12203
12051
11825
11674
11745
11825
11807
11902
12145
12362
12539
12684
12809
12872
13024
13086
13050
12872
12789
12740
12762
12773
12775
12774
12675
12566
12597
12612
12337
12175
11982
11936
11819
11804
11686
11557
11435
11320
11170
10588
10563
10673
10858
11086
11392
11992
12097
12037
11992
11822
11405
11332
11299
11327
11523
12430
12700
12741
12756
12857
12913
12906
12853
12733
12520
12226
11248
10727
10366
10159
10076
10152
10573
10942
11339
11702
12026
12569
12785
12929
12958
12922
12986
13091
13118
13034
12994
12990
13042
12915
12850
12779
12567
11839
11382
10968
10606
10371
10274
10498
10852
11334
11750
12023
12247
12357
12513
12541
12402
12257
11997
11879
11943
12178
12409
12837
13054
13119
12970
12732
12351
12068
11804
11649
11610
11497
11019
10882
10784
10733
10662
10466
10567
10660
10838
11093
11356
11351
11519
11867
12043
12097
12359
12593
12857
13131
13374
13563
13476
13378
13296
13129
12917
12643
12499
12103
11628
11325
11449
11739
11920
11987
11930
11762
11140
10931
10870
10909
11105
11600
11782
12020
12128
12148
11946
11806
11696
11731
11800
11915
12376
12530
12633
12744
12741
12525
12461
12421
12357
12276
12163
12065
12119
12167
12203
12181
11966
11770
11587
11460
11376
11347
11408
11510
11691
11887
12013
12211
12426
12705
12979
13092
13066
12988
12837
12655
12395
12247
12083
11950
11804
11675
11493
11056
10799
10594
10570
10669
10807
11002
11047
11083
11170
11336
11611
11850
12165
12360
12480
12693
12697
12655
12656
12649
12675
12803
12876
12884
12807
12572
11474
10919
10534
10404
10340
10232
10532
10950
11346
11726
12050
12588
12780
12985
13024
13045
13049
13039
13035
13070
13109
13092
12687
12339
11993
11645
11330
10799
10626
10586
10615
10800
11101
11690
11843
11907
11841
11688
11776
12109
12541
12912
13150
13254
13057
12888
12726
12558
12346
11857
11678
11549
11543
11620
11562
11553
11619
11683
11750
11815
11865
11792
11692
11531
11426
11591
11710
11779
12016
12229
12340
12472
12442
12237
11981
11666
11107
11034
11164
11413
11670
11976
12135
12329
12364
12394
12396
12385
12351
12346
12291
12229
12203
12257
12228
12240
12378
12465
12407
12314
12214
12104
12023
12097
12090
12132
12194
12245
12195
11778
11548
11419
11305
11310
11679
11691
11659
11617
11647
11731
11789
11890
11899
11952
12003
12169
12218
12205
12154
12051
12019
12137
12253
12248
12165
12062
11857
11809
11665
11537
11564
11714
11874
12005
12068
12161
12209
12188
12079
11958
11843
11805
12193
12442
12577
12608
12514
12244
12047
11758
11483
11326
11268
11397
11511
11629
11682
11835
12002
11950
11893
11921
11908
11814
11485
11475
11479
11408
11472
11567
11640
11889
12020
12157
12101
11997
11930
11927
11991
12080
12345
12341
12399
12461
12437
12300
12286
12332
12260
12191
12066
11659
11480
11523
11657
11842
12252
12470
12607
12661
12665
12575
12507
12414
12399
12417
12380
12194
12050
11968
11923
11879
11779
11691
11565
11360
11132
10909
10792
10974
11163
11377
11558
11886
11923
12055
12186
12276
12449
12489
12371
12217
12156
12238
12507
12546
12570
12721
12813
12700
12679
12667
12553
12383
12259
12102
11931
11786
11629
11388
11016
10999
11027
11091
11193
11227
11181
11077
11031
11105
11252
11552
11702
11807
11929
12161
12483
12581
12618
12649
12648
12613
12486
12471
12471
12430
12418
12472
12401
12369
12356
12351
12311
12219
12145
11973
11791
11679
11621
11576
11598
11672
11853
11863
11870
11943
11953
11864
11795
11580
11379
11158
11001
10984
11193
11463
11761
11920
12005
12053
12119
12139
12200
12268
12363
12602
12708
12753
12649
12562
12521
12400
12375
12464
12470
12420
12347
12297
12222
12139
12100
11858
11639
11545
11571
11561
11528
11255
11316
11396
11471
11469
11464
11532
11617
11654
11615
11635
11661
11689
11852
12046
12249
12305
12222
12196
12221
12167
11921
11961
12114
12238
12352
12456
12569
12463
12371
12341
12337
12230
12156
12045
11936
11736
11550
11375
11460
11646
11822
11815
11441
11256
11162
11232
11490
11728
12009
12112
12203
12291
12429
12373
12261
12164
12104
12112
12020
11968
11924
11883
11871
11863
12009
12079
12162
12252
12264
12243
12195
12079
12023
12034
12139
12159
12226
12328
12323
12251
12210
12254
12210
12187
12165
12151
12100
12043
12016
11934
11737
11373
11231
11145
11082
10900
10978
11237
11573
11887
12127
12281
12337
12337
12350
12223
12052
11937
11876
11769
11736
11768
11920
11997
12060
12169
12280
12358
12421
12463
12462
12456
12531
12537
12502
12460
12380
12302
12176
11963
11814
11721
11494
11214
10671
10499
10504
10715
10983
11206
11597
11730
11853
11959
12070
12457
12552
12608
12692
12798
12542
12452
12511
12554
12522
12424
12148
11977
11806
11572
11312
11029
11174
11375
11584
11795
11921
12095
12153
12187
12218
12252
12163
12111
12098
12088
12046
12146
12160
12206
12208
12214
12234
12314
12271
12225
12267
12286
12263
12184
12059
12030
11998
11940
11955
11979
11949
11856
11756
11584
11459
11401
11472
11589
11700
11770
11791
11796
11674
11608
11816
11980
12009
12012
12127
12126
12117
12143
12186
12156
12113
12067
12056
12050
12065
12109
12159
12069
11959
11942
11993
12024
12249
12369
12444
12398
12279
11951
11785
11634
11534
11490
11399
11422
11525
11650
11757
11723
11575
11580
11696
11773
11730
11754
11729
11900
12067
12161
12232
12491
12564
12531
12440
12260
12177
12185
12152
12113
12053
12008
11888
11862
11823
11893
11973
12030
12033
12062
12128
12251
12331
12128
12017
12140
12017
11734
11221
11206
11238
11291
11481
11971
12104
12140
12096
12038
11978
11955
12029
12113
12109
12138
12246
12211
12165
12216
12230
12147
12061
11960
11977
11996
11951
11935
11963
11919
11953
12047
12016
12022
12064
12118
12114
12109
12022
12055
12043
12028
11972
11930
11952
11914
11862
11845
11852
11839
11800
11761
11803
11916
11949
11971
12013
12053
12014
11960
11923
11858
11923
11964
12020
11985
11929
11896
11849
11824
11971
12008
11985
11982
12031
12091
12011
11977
11949
11939
11801
11672
11721
11768
11778
11869
12062
12040
12006
11989
12008
11968
12090
12149
12173
12211
12216
12145
12070
12036
12077
12134
12180
12332
12309
12208
12135
12113
12036
11969
11883
11796
11698
11502
11357
11318
11324
11328
11360
11607
11734
11930
12068
12209
12285
12182
12047
11978
11995
12101
12194
12123
12035
11936
11878
11883
11894
11847
11844
11906
11997
12042
12049
12155
12220
12282
12335
12329
12304
12233
12182
12117
11959
11809
11706
11667
11676
11765
11829
11833
11821
11865
12031
12035
12064
12159
12179
12103
11999
11970
11967
11946
11909
11918
12025
12050
12044
11966
11816
11792
11793
11821
11791
11782
11816
11812
11812
11803
11845
11944
12023
12063
12136
12149
12172
12160
12087
12037
12044
12100
12083
12157
12235
12256
12154
12085
12066
12018
11928
11897
11829
11828
11860
11919
11935
11797
11589
11590
11595
11661
11781
11864
12009
12030
12079
12120
12158
12156
12153
12163
12203
12231
12256
12155
12109
12079
12034
11929
11793
11833
11843
11811
11748
11735
11705
11675
11695
11770
11811
11978
12054
12104
12160
12210
12271
12268
12315
12358
12383
12232
12000
11998
11980
12014
12051
11804
11519
11370
11372
11390
11429
11556
11655
11733
11790
11886
11927
11906
11924
11985
12079
12132
12233
12347
12325
12328
12311
12242
12219
12165
12170
12165
12075
12098
12119
12085
12001
11919
11948
11926
11881
11882
11971
12008
12060
12066
12045
12028
12030
11984
12009
12036
12027
12075
12044
12003
11993
11978
11935
11859
11916
11939
11912
11890
11903
11802
11756
11749
11831
11941
11980
11981
12005
11976
11932
11923
11939
11957
12057
12148
12153
12079
12090
12097
12078
12083
12108
12156
12131
12048
11967
11897
11793
11847
11839
11892
11852
11911
11908
11858
11797
11739
11695
11642
11638
11707
11829
11954
12152
12218
12273
12230
12242
12199
12199
12180
12178
12193
12175
11908
11897
11848
11796
11792
11848
11813
11727
11673
11599
11607
11751
11843
11899
12018
12118
12289
12340
12380
12349
12305
12296
12265
12135
11982
11867
11795
11641
11525
11495
11453
11380
11611
11794
11924
12042
12043
11998
12022
12056
12045
12097
12179
12220
12222
12218
12180
12133
12144
12088
12059
12055
12054
12096
12084
12007
12017
11902
11802
11733
11837
11910
11965
12012
11991
11943
11980
12007
12006
12083
12132
12152
12089
11994
11918
11874
11752
11761
11777
11832
11882
11850
11786
11822
11842
11907
12054
12088
12074
12089
12110
12068
11964
11997
12009
12011
12018
12049
12057
12002
11970
11945
11984
11960
11940
11971
11962
11974
12059
12024
11955
11952
11956
11923
11991
12030
12045
12050
12028
11972
11951
11874
11840
11890
12052
12056
12023
12030
12039
12039
12054
12040
12035
12029
12057
12035
11985
11909
11862
11854
11856
11922
11966
11982
11958
11910
11814
11739
11700
11756
11818
11941
12009
12054
12135
12130
12116
12070
12039
11981
11984
11985
11906
11805
11712
11690
11769
11818
11881
11925
11995
12050
12054
12034
11966
11927
11975
12027
12073
12087
12127
12195
12160
12093
12047
11984
11878
11782
11738
11703
11716
11747
11695
11634
11655
11755
11773
11813
11864
11881
12015
12079
12122
12185
12201
12185
12347
12416
12400
12333
12286
12212
12148
12090
12053
12032
11969
11958
11919
11853
11795
11735
11592
11527
11504
11589
11668
11816
11885
11944
12004
12051
12078
12206
12194
12183
12189
12165
12078
12080
12038
12028
11981
12012
12064
12069
12009
11910
11910
11937
11930
11936
12015
12004
12033
11984
11919
11854
11915
12003
11970
11935
11928
11950
11950
11974
12053
12091
12068
12085
12137
12090
12080
12102
12029
11909
11743
11659
11652
11608
11645
11861
11933
11935
11935
11987
12033
12092
12189
12211
12214
12210
12119
11948
11908
11963
12043
12079
12074
12119
12124
12074
11990
12016
12054
12047
12053
12046
11858
11922
11897
11748
11526
11384
11347
11476
11532
11561
11599
11722
11863
11997
12113
12158
12139
12235
12249
12213
12238
12153
12076
12040
12086
12116
12089
12152
12148
12102
12004
12030
12057
12010
12018
12098
12124
12079
12076
12078
12014
11992
11982
11958
11960
11940
11914
11908
11926
11862
11878
11898
11906
11993
12015
12099
12102
12038
12069
12115
12107
12068
12084
12120
12161
12181
12166
12113
12078
12071
12028
11966
11956
11936
11899
11792
11284
11142
11039
11045
11167
11415
11615
11725
11866
11949
12046
12138
12176
12218
12312
12344
12293
12282
12257
12209
12152
12100
12085
12066
12067
12122
12161
12048
12057
12095
12085
12078
12121
12149
12177
12129
12031
12036
11989
11883
11847
11884
11938
11850
11721
11676
11538
11342
11260
11307
11428
11601
11781
11923
12059
12096
12122
12091
12128
12157
12234
12209
12198
12231
12197
12217
12238
12278
12281
12239
12190
12176
12159
12124
12146
12153
11895
11789
11682
11571
11451
11534
11676
11749
11762
11823
11849
11991
12021
12090
12087
12053
12024
12031
12046
12074
12198
12190
12209
12210
12180
12173
12132
12079
12127
12163
12193
12191
12146
12043
12026
11971
11924
11902
11930
11902
11875
11880
11845
11657
11676
11706
11669
11724
11788
11838
11803
11796
11796
11802
11845
11900
11975
12047
12115
12140
12111
12097
12040
12062
12062
12026
12007
11994
11981
11928
11761
11727
11801
11916
11932
12046
12097
12125
12155
12169
12172
12026
11933
11888
11851
11884
11960
12073
11993
11955
11952
11950
12038
12117
12168
12204
12110
11783
11704
11599
11523
11542
11651
11804
11867
11914
11981
12032
12160
12248
12240
12191
12158
12189
12185
12050
11932
11917
11950
11988
12102
12143
12095
12009
11828
11601
11622
11630
11560
11509
11563
11584
11743
11906
11952
11996
12082
12103
12107
12160
12194
12074
12000
11930
11947
11919
12014
12191
12362
12395
12451
12547
12491
12495
12470
12495
12488
12448
12380
12339
12238
12150
11896
11769
11677
11587
11446
11225
10807
10605
10528
10493
10617
11037
11220
11454
11683
11902
12123
12363
12465
12500
12452
12412
12500
12550
12548
12486
12479
12513
12440
12488
12556
12493
12382
12330
12195
12101
11999
12010
11882
11744
11652
11564
11450
11302
11285
11422
11548
11689
11804
12021
12127
12129
12136
12198
12242
12514
12622
12604
12505
12461
12339
12314
12272
12137
12112
12064
12075
12084
12101
12121
12096
12060
11944
11852
11664
11489
11077
10915
10835
10799
10790
10906
11436
11694
11911
12078
12165
12382
12461
12485
12452
12371
12445
12398
12203
12000
11819
11654
11657
11702
11763
11844
11872
11871
11976
12064
12147
12242
12332
12396
12330
12318
12302
12321
12322
12308
12303
12267
12158
12054
11920
11926
11964
12035
12101
12002
11913
11866
11787
11701
11491
11484
11585
11630
11613
11542
11587
11654
11716
11766
11857
12062
12079
12083
12104
12090
12020
11994
12025
12053
12118
12163
12305
12273
12219
12225
12319
12402
12396
12477
12459
12427
12393
12263
12140
11985
11882
11816
11876
11890
11874
11731
11490
11195
10995
10916
10888
10923
11134
11328
11442
11526
11672
11834
12111
12627
12775
12918
12962
12945
12907
12815
12754
12670
12553
12387
12307
12239
12208
12193
12177
12060
11870
11652
11347
11111
10647
10522
10585
10733
10880
11004
11262
11430
11725
11911
11996
12215
12312
12330
12334
12379
12453
12512
12620
12736
12823
12874
12838
12872
12809
12751
12690
12511
12406
12309
12277
12275
12247
12197
12086
11997
11900
11722
11245
11000
10864
10736
10571
10458
10601
10758
10904
11079
11260
11650
11795
11859
12011
12128
12297
12427
12486
12491
12472
12457
12599
12616
12582
12602
12584
12639
12666
12737
12708
12618
12598
12443
12363
12267
12142
12010
11602
11445
11340
11361
11348
11529
11623
11622
11581
11539
11493
11529
11564
11656
11716
11724
11810
11805
11709
11632
11646
11750
11862
11939
12087
12186
12259
12330
12330
12398
12480
12620
12787
12832
12867
12876
12791
12698
12636
12569
12478
12339
12231
11929
11864
11828
11694
11418
11088
10525
10267
10039
9967
10136
10372
10781
11121
11498
11850
12098
12556
12839
12976
13026
13002
12976
12846
12788
12708
12678
12682
12717
12844
12869
12700
12493
12241
11714
11477
11248
11105
11021
10851
10896
11038
11099
11143
11224
11552
11635
11641
11639
11684
11833
11978
12063
12164
12221
12278
12341
12387
12411
12475
12570
12618
12625
12657
12696
12633
12579
12471
12437
12381
12258
12149
12055
12047
12030
11880
11623
11132
11029
11009
11012
11181
11617
11869
12039
12107
12065
12077
12074
12013
12010
12047
12048
11997
11850
11759
11787
11800
11869
11955
12028
12160
12355
12494
12654
12819
12908
12925
12878
12937
12820
12719
12635
12508
12434
12428
12238
11939
11561
11205
10598
10352
10107
9963
9867
9810
9949
10235
10460
10879
11175
11481
11784
12027
12267
12570
12802
12926
13005
13072
13072
13072
13039
13119
13131
13153
13065
12950
12786
12585
12404
12297
12211
12129
11988
11900
11681
11511
11378
11230
11121
11067
11011
11167
11390
11527
11621
11709
11818
11908
12026
12093
12018
11871
11857
11828
11827
11891
12062
12080
12034
12063
12181
12264
12337
12463
12515
12423
12303
12280
12280
12312
12389
12539
12389
12104
11804
11527
11350
11160
10905
10876
10825
10814
10873
11047
11217
11350
11639
11789
11929
12230
12511
12744
13032
13387
13735
13785
13841
13885
13758
13389
13142
12916
12631
12291
12003
11660
11619
11611
11484
11123
10078
9663
9391
9230
9013
8850
8776
8838
9095
9560
10111
10715
11311
11830
12681
13057
13266
13300
13380
13318
13248
13212
13150
13118
13057
12890
12883
12873
12831
12703
12628
12669
12721
12805
12963
13093
13083
13004
12840
12632
12480
12399
12366
12314
12291
12219
12078
12008
12009
11934
11752
11503
10544
10097
9737
9534
9448
9412
9519
9830
10297
10664
11068
11745
12002
12128
12222
12335
12491
12625
12713
12839
12905
12986
12989
12973
13009
13030
13031
12961
12930
12941
12912
12868
12541
12398
12386
12386
12301
12304
12228
12151
12053
11912
11677
11238
10975
10788
10770
10777
10732
10900
11125
11237
11215
11162
11086
10962
10963
11110
11352
11974
12249
12454
12481
12338
12260
12251
12204
12195
12227
12297
12786
13120
13383
13542
13580
13500
13343
13254
13078
12915
12798
12297
11917
11613
11342
11051
10768
10206
9996
9771
9573
9567
9643
9717
9820
10047
10326
10592
11303
11691
11995
12168
12335
12507
12776
12942
13115
13321
13499
13625
13594
13542
13471
13403
13354
13017
12831
12718
12621
12474
12177
12082
11950
11769
11599
11232
11058
10825
10589
10400
10343
10355
10413
10576
10800
11148
11979
12262
12423
12545
12680
12763
12821
12741
12784
12836
12837
12872
12877
12936
13078
13222
13325
13504
13564
13573
13580
13433
13080
12920
12627
12296
11931
11099
10696
10265
9921
9596
9413
9344
9362
9399
9416
9401
9351
9426
9662
10149
10726
11620
11860
12050
12306
12570
13145
13419
13668
13918
14045
14162
14292
14275
14090
13834
13580
13009
12667
12514
12555
12645
12619
12385
12141
11770
11241
10624
9431
9007
8727
8608
8654
8867
9206
9658
10245
10814
11399
11923
12358
12878
12980
12951
12849
12829
12929
13018
13101
13155
13161
13113
13010
12944
12821
12775
12673
12644
12627
12538
12337
12156
11981
11885
11766
11683
11640
11609
11425
11266
11128
11030
11041
11191
11301
11464
11632
11800
11816
11944
11968
11921
11931
11967
12071
12157
12206
12249
12422
12926
13076
13208
13213
13258
13244
13025
12780
12513
12370
12309
12200
12130
12069
12006
11951
11852
11705
11478
11206
10998
10766
10002
9642
9392
9288
9356
9589
10034
10633
11260
11838
12303
12352
12469
12644
12859
13214
13429
13720
13929
14054
14097
13898
13672
13499
13335
13183
12884
12697
12533
12340
12137
12030
12035
12039
11973
11689
11331
10262
9666
9154
8745
8568
8568
8821
9204
9692
10295
11062
11854
12482
12923
12999
13056
13017
12793
12243
11965
11746
11672
11749
11888
12220
12456
12692
12917
13008
13147
13205
13288
13289
13323
13333
13205
13046
12847
12666
12483
12188
11996
11808
11575
11254
10575
10349
10244
10257
10309
10322
10523
10590
10683
10843
11177
11668
11812
12020
12294
12541
12828
13190
13243
13252
13257
13279
13075
12851
12726
12630
12476
12395
12409
12366
12315
12281
12229
11997
11806
11687
11577
11552
11556
11595
11647
11674
11667
11714
11841
11912
11955
11962
11877
11739
11675
11631
11622
11523
11477
11795
12022
12316
12788
13217
13559
13638
13635
13593
13584
13679
13670
13548
13321
12945
12530
11922
11718
11404
11056
10607
9300
8596
7915
7590
7576
7655
7902
8355
9062
9806
10350
10662
10880
11124
11553
12388
12690
12995
13262
13407
13288
13272
13328
13524
13787
14001
14003
13816
13638
13513
13357
12768
12521
12345
12355
12449
12415
12336
12198
12011
11799
11654
11709
11613
11472
11350
11201
11054
11093
11196
11272
11333
11402
11503
11570
11631
11730
11785
11957
12120
12285
12325
12382
12604
12689
12800
12856
12838
12761
12795
12812
12729
12709
12640
12383
12299
12199
12002
11752
11515
11074
10879
10670
10466
10375
10230
10224
10409
10708
11117
11568
12452
12698
12843
12901
12849
12793
12705
12564
12504
12541
12418
12339
12329
12315
12312
12346
12368
12323
12342
12377
12419
12410
12276
12159
12071
12023
11965
12043
12016
12031
12010
11926
11735
11752
11797
11907
12089
12002
11920
11885
11808
11635
11467
11225
11388
11707
12145
12658
13358
13528
13549
13592
13513
13338
12541
12091
11736
11489
11206
10793
10838
11050
11239
11320
11271
10644
10193
9797
9321
8771
8385
8076
7914
8085
8647
9281
9770
10359
11002
12133
12709
13108
13538
14074
14606
15073
15122
15135
15157
15162
14979
14682
14386
14104
13833
13152
12752
12277
11766
11157
10514
9607
9362
9232
9304
9605
10075
10552
10994
11300
11463
11364
11269
11305
11373
11464
12142
12589
12893
13089
13339
13599
13697
13641
13563
13419
13243
13145
13075
12915
12813
12759
12570
12371
12184
12085
12008
11864
11661
11624
11469
11241
11042
10613
10417
10334
10347
10412
10528
10913
11150
11337
11497
11633
12037
12088
12136
12102
11955
11736
11768
11872
12040
12136
12322
12725
12905
13113
13222
13211
12927
12886
12899
12930
12979
13034
12818
12547
12416
12307
12163
12009
11921
11804
11648
11589
11646
11597
11462
11341
11367
11366
11280
11178
11098
11067
11079
11406
11762
12274
12700
12866
12784
12694
12684
12577
12357
12092
11523
11259
11254
11429
11655
11921
12431
12552
12482
12626
12956
12936
12727
12499
12233
11952
11410
11202
11027
10899
10830
10836
11050
11038
10973
10808
10302
8664
8187
7871
7728
7820
8080
8587
9351
10329
11283
12152
12926
13456
14057
14288
14427
14430
14336
14011
13957
14094
14270
14216
14115
14078
13853
13642
13454
13292
13223
13085
12981
12906
12869
12747
12297
11998
11569
11181
10864
10214
10063
10064
10253
10504
10793
11276
11518
11685
11820
11952
12221
12154
12089
12013
11967
12183
12343
12475
12601
12654
12676
12865
13013
13125
13183
13236
12958
12863
12831
12720
12532
12373
11801
11454
11084
10712
10356
10190
10435
10844
11325
11807
11992
11638
11210
10831
10495
10211
10144
10285
10544
10748
11007
11632
12001
12435
12886
13303
13591
13655
13579
13468
13286
13063
12797
12747
12725
12797
12903
12952
12781
12644
12375
11977
11484
10537
10239
10186
10202
10259
10663
10931
11405
11897
12253
12316
12177
12155
12139
12090
11980
11872
11901
11915
11874
11822
11776
11990
12102
12193
12213
12226
12502
12826
13281
13644
13696
13558
13335
13114
13019
12982
12813
12368
12246
12200
12112
11962
11658
11516
11352
11349
11491
11559
11314
11071
10746
10392
10117
10102
10247
10360
10423
10342
9827
9598
9571
9783
10316
11018
11730
12370
12793
13066
13933
14128
14156
14153
14126
13721
13427
13170
12920
12766
12988
12914
12749
12747
12832
12936
12833
12551
12271
11979
11637
11237
11352
11525
11794
12048
12161
12031
11837
11546
11224
10932
10412
10100
9848
9693
9816
10127
10609
11110
12188
12512
12671
12866
13060
13121
13134
13093
13006
12888
12750
12451
12271
12069
11817
11599
11093
10864
10770
10767
10751
10842
11282
11546
11982
12453
12878
13369
13469
13527
13430
13252
13127
12909
12679
12362
12102
12130
12461
12473
12375
12135
11857
11677
11342
11294
11372
11520
11647
11580
11451
11393
11552
11853
12368
12302
12102
11717
11307
11033
10786
10948
11193
11306
11446
11732
11741
11652
11410
11114
10914
11080
11259
11457
11817
12177
12661
12813
12869
12890
12906
12745
12674
12624
12653
12718
12852
13164
13337
13380
13318
13150
12732
12324
11882
11633
11475
11492
11610
11688
11751
11856
11845
11614
11358
11025
10470
9897
9387
8968
8761
8870
9320
10044
11362
11903
12516
13001
13313
13603
13741
13726
13655
13677
13690
13584
13488
13421
13292
13145
12980
12878
12667
12433
12195
11976
11579
11435
11313
11128
10926
10701
10677
10699
10930
11201
11705
11917
12107
12409
12837
13130
13247
13248
13158
12923
12605
12165
11979
11885
11765
11502
11228
11057
10959
10787
10674
10654
10556
10425
10311
10427
10644
10945
11677
11964
12176
12393
12480
12281
12195
12200
12269
12405
12675
12714
12744
12736
12656
12490
12102
11990
11897
11875
11901
12141
12204
12142
11963
11839
11795
11774
11816
11852
11820
11715
11828
12104
12402
12646
12717
12633
12665
12734
12725
12553
12343
11940
11749
11552
11421
11371
11468
11714
11947
11998
11971
11944
11885
11890
11872
11821
11780
11752
11738
11682
11678
11666
11698
11979
12097
12252
12434
12528
12516
12505
12482
12477
12475
12353
12274
12249
12236
12231
12224
12303
12231
12169
12024
11897
11782
11654
11552
11518
11544
11530
11428
11403
11240
11061
10854
10714
10703
10786
10997
11361
11968
12034
12080
12090
12044
12230
12750
12849
12854
12812
12824
13026
13081
13011
12951
12948
12853
12790
12778
12785
12819
12757
12331
12046
11697
11368
11080
10573
10377
10185
10011
9930
10062
10348
11163
11605
12032
12290
12376
12202
12101
12122
12132
12158
12108
12112
12120
12148
12204
12382
12291
12031
11821
11690
11687
11744
11796
11865
11940
11962
12118
12377
12382
12490
12517
12409
12325
12255
12160
12162
12220
12201
12276
12427
12497
12439
12409
12440
12469
12350
12193
12057
11969
12028
12107
12182
12124
11990
11695
11507
11271
11139
11019
10611
10566
10661
10916
11268
11514
11789
11929
11945
11946
12062
12224
12257
12268
12381
12468
12573
12842
12912
12896
12852
12750
12741
12702
12617
12543
12533
12486
12423
12224
12031
11955
11946
11854
11804
11666
11464
11209
11016
11120
11267
11425
11503
11437
11215
11069
11081
11226
11314
11485
11638
11759
11868
12000
12163
12308
12326
12395
12443
12463
12395
12339
12271
12106
11871
11625
11601
11679
11854
11966
12073
12407
12484
12430
12306
12126
12007
11904
11873
11840
11875
11919
12218
12293
12229
12169
12136
12088
12001
12095
12151
12207
12416
12468
12442
12328
12268
12291
12321
12358
12339
12335
12306
12099
12077
12031
11877
11690
11581
11217
11030
10925
10778
10631
10316
10263
10378
10642
10975
11490
11648
11806
11956
12092
12124
12353
12520
12675
12737
12730
12796
12790
12712
12715
12712
12756
12634
12604
12555
12448
12332
12245
12107
11900
11859
11853
11843
11857
11892
11959
11959
11942
11932
11881
11871
11896
11925
11939
11978
12025
12043
11957
11946
11878
11828
11780
11697
11697
11788
11796
11769
11811
11834
11882
12044
12038
12019
11907
11804
11672
11612
11581
11534
11584
11876
11965
12120
12281
12423
12386
12435
12518
12538
12531
12509
12593
12461
12243
11957
11703
11449
11063
11076
11100
11094
11218
11515
11708
11854
11928
11954
11933
11872
11949
12038
12108
12230
12516
12545
12447
12328
12138
11780
11717
11708
11723
11758
11782
12104
12163
12175
12075
11903
11782
11906
12022
12075
12013
11945
11977
11941
11971
11997
12020
11924
11885
11868
11861
11873
12059
12204
12349
12413
12517
12659
12633
12558
12475
12333
12222
12107
11984
11927
11946
12014
12048
11868
11740
11806
11835
11773
11556
11459
11370
11351
11462
11571
11805
11822
11733
11582
11528
11530
11508
11434
11450
11547
11720
11681
11597
11619
11794
11987
12437
12572
12662
12768
12830
12751
12699
12715
12694
12568
12405
12224
12206
12153
12138
12102
11964
11880
11815
11757
11601
11480
11426
11404
11494
11643
11763
11882
11929
11996
12171
12312
12438
12572
12676
12698
12687
12562
12048
11873
11829
11731
11633
11670
11652
11720
11885
12002
11724
11569
11406
11220
11091
11036
11159
11356
11473
11520
11697
12123
12384
12660
12805
12887
12960
13128
13174
13106
12879
12527
12030
11809
11616
11364
11228
11190
11451
11532
11631
11740
11741
11373
11235
11302
11398
11539
11641
11647
11693
11865
12085
12218
12358
12450
12482
12471
12442
12465
12445
12405
12322
12265
12201
12099
12137
12184
12215
12206
12172
12050
11928
11727
11496
11238
11204
11214
11324
11472
11545
11641
11734
11859
12008
12104
12300
12407
12444
12471
12448
12416
12323
12301
12286
12309
12364
12351
12278
12257
12231
12047
11945
11959
11961
11913
11944
12013
12069
11912
11726
11534
11474
11503
11464
11517
11598
11753
11855
11927
11971
12067
12129
12117
12121
12082
12044
12068
12084
12180
12333
12369
12408
12441
12364
12207
12202
12200
12233
12297
12176
11933
11704
11503
11276
11035
10831
10879
10948
11002
11171
11663
11860
11950
12046
12104
12161
12413
12298
12194
12178
12197
12260
12288
12276
12233
12156
11959
11953
11996
11991
11952
11963
12076
12138
12232
12262
12145
11898
11785
11645
11503
11433
11432
11513
11511
11650
11795
11892
12021
12103
12106
12176
12307
12391
12345
12385
12448
12406
12340
12512
12548
12509
12437
12330
12154
12047
11985
11968
11949
11883
11685
11630
11535
11423
11474
11515
11492
11412
11334
11253
11269
11404
11675
11991
12168
12267
12341
12327
12337
12335
12306
12226
12192
12188
12182
12246
12320
12214
12246
12213
12158
12114
12130
12087
11983
11848
11722
11670
11543
11646
11816
11980
12044
11973
11921
11841
11766
11716
11667
11722
11822
12015
12119
12124
12010
11998
11904
11886
11880
11862
11890
11986
12056
12057
12070
12195
12225
12210
12259
12278
12296
12242
12264
12202
11984
11752
11332
11222
11244
11340
11538
11746
11750
11821
11887
11946
12074
12112
12078
12021
11990
12044
12159
12229
12284
12406
12426
12432
12435
12371
12277
12337
12423
12280
12215
12205
12209
12217
12137
12077
12005
11897
11780
11547
11355
11193
11135
11150
11132
11507
11753
11958
11992
12020
11695
11440
11404
11496
11620
11841
12225
12325
12379
12420
12457
12400
12225
12167
12074
11958
11878
11916
11900
11823
11811
11828
11946
12042
12156
12230
12292
12297
12295
12276
12256
12165
12138
12260
12270
12190
12154
12109
11926
11867
11898
12040
12026
11969
11798
11623
11468
11319
11293
11598
11861
12009
12041
11930
11586
11417
11430
11536
11593
11664
11891
11992
12063
12079
12048
12157
12207
12139
12162
12177
12195
12203
12217
12100
11984
12006
12098
12109
12182
12206
12229
12221
12204
12163
12071
12004
11949
12033
12074
12135
12211
12266
12367
12378
12326
12214
12081
12050
12083
11986
11911
11891
11842
11713
11709
11643
11529
11448
11513
11812
11817
11827
11922
11955
11843
11743
11718
11702
11684
11803
11827
11787
11665
11772
11859
12115
12221
12215
12073
11966
11863
11849
11810
11890
11989
12039
12289
12348
12380
12412
12490
12374
12258
12215
12131
12116
12119
11883
11701
11483
11355
11399
11628
11804
12060
12257
12372
12393
12329
12315
12315
12292
12239
12055
11939
11865
11812
11723
11543
11439
11327
11239
11271
11417
11789
11909
11944
11966
12072
12131
12171
12251
12294
12273
12167
12080
12052
12028
11935
11843
11838
11935
12054
12157
12191
12064
12048
12037
12097
12128
12109
12133
12096
12112
12060
12052
12029
11951
11962
11983
12032
12097
12052
11863
11701
11660
11741
11828
11912
11938
11938
11912
11908
11978
12004
12035
12038
11997
11849
11824
11776
11674
11547
11622
11725
11820
12019
12222
12329
12209
12138
12160
12162
12163
12170
12176
12097
11978
11868
11416
11230
11244
11359
11485
11600
11986
12115
12192
12192
12122
12053
12002
12073
12116
12185
12206
12201
12078
11976
11956
11931
11950
11992
12101
12179
12164
12143
12136
12085
12048
12079
12083
12090
12114
12139
12106
12017
11890
11878
11877
11822
11887
11978
12028
12010
11935
11834
11713
11676
11780
11918
11964
11887
11838
11792
11860
12019
12095
12117
12175
12198
12202
12199
12177
12090
12030
11939
11800
11749
11800
11983
12022
11976
11900
11879
11915
11926
12010
12099
12041
11918
12004
12102
12192
12216
12252
12027
11775
11558
11460
11442
11416
11513
11694
11791
11889
12062
12260
12331
12401
12304
12166
11935
11845
11758
11721
11700
11694
11839
11919
12008
12124
12144
12143
12108
12087
12083
12126
12140
12070
12037
12016
11998
12002
12042
12065
12126
12087
12038
11979
11960
11958
11933
11888
11819
11815
11834
11877
11924
11996
12034
12062
12069
12081
12111
12112
11973
11982
11948
11957
11827
11826
11845
11895
11945
11938
11905
11894
11916
12016
12109
12130
12100
12064
12033
11974
11948
11883
11807
11754
11757
11753
11799
11899
11915
11888
11894
11907
11977
12068
12145
12177
12136
12158
12135
12086
12062
12098
12137
12071
12084
12070
12054
12053
12004
11939
11854
11820
11841
11876
11890
11896
11983
11899
11853
11885
11939
11939
11968
12000
11945
11789
11767
11779
11874
11986
12119
12112
12076
12055
12048
11948
11907
11914
11955
11961
12014
12124
12039
12015
12007
11986
12005
12012
12045
12064
12096
12059
11948
11886
11824
11805
11847
11846
11834
11872
11885
11884
11995
12007
12013
12039
12113
12127
12075
11948
11883
11862
11842
11856
11965
12018
12053
12071
12028
11898
11937
12022
12062
12090
12168
12196
12182
12262
12330
12279
12158
12154
12159
12125
12072
11789
11579
11344
11391
11441
11379
11446
11590
11719
11739
11653
11629
11781
11914
12063
12139
12278
12305
12282
12302
12282
12207
12188
12132
12049
12048
12071
12029
12028
12009
11958
11951
11920
11948
12018
12048
12062
12072
11937
11912
11939
11936
11952
12113
12145
12108
12076
12048
12051
12021
11989
11988
11950
11921
11968
11971
11932
11847
11850
11856
11843
11858
11928
11964
11954
11891
11884
11904
11899
11929
12053
12071
12068
12060
11949
11825
11829
11860
11877
11883
11926
12025
12011
11996
11930
11855
11775
11688
11673
11660
11655
11681
11828
11905
11976
12048
12101
12161
12224
12243
12273
12276
12272
12173
12103
12109
12050
11968
12003
11986
11951
11853
11808
11798
11863
11893
11985
12076
12093
12086
12068
12062
12092
12175
12225
12273
12259
12189
12127
12118
11985
11859
11782
11656
11453
11146
11191
11382
11518
11561
11637
11852
11979
12075
12135
12176
12170
12156
12147
12116
12120
12135
12198
12207
12185
12139
12103
12130
12039
12075
12079
12042
12002
12052
12054
12037
12021
11973
11945
11931
11947
12023
12032
12006
12023
11937
11922
11968
12023
11907
11875
11934
11976
12006
12002
12006
11981
12005
12035
11976
11979
11995
11995
11987
11915
11870
11843
11839
11884
11948
12039
12033
11985
11943
11941
11926
11907
11965
12033
12051
12037
12049
12038
12052
12063
12022
11899
11952
11966
11893
11826
11713
11641
11645
11672
11694
11734
11834
11899
11952
11975
12032
12094
12047
12024
12090
12191
12189
12183
12172
12140
12099
12073
12049
12000
12021
12034
12024
12028
11968
11976
11947
11886
11921
12007
11991
11999
11944
11922
12002
11956
11922
11991
12013
11945
11872
11851
11862
11871
11897
11950
11936
11977
12047
12098
12114
12026
12038
12003
11987
12044
12103
12062
12095
12089
12077
12071
12042
11934
11816
11796
11798
11561
11541
11533
11604
11697
11839
12069
12034
11946
11913
11960
11964
11948
11971
11928
11829
11881
12043
12070
12124
12108
12077
12077
12070
12104
12216
12207
12204
12199
12156
12092
12037
12025
11988
11965
11961
11963
11958
11856
11813
11747
11618
11601
11603
11796
11892
11983
12009
11968
12059
12073
12072
12054
12065
12156
12115
12092
12096
12065
12021
12026
12025
12017
12048
12072
12126
12034
11986
12035
12051
12021
12120
12119
12081
12034
11999
11939
11930
11915
11887
11850
11769
11662
11566
11503
11536
11617
11733
11774
11777
11808
11841
11913
11914
11968
11965
12026
12083
12134
12150
12182
12213
12177
12137
12141
12100
12081
12131
12197
12144
12129
12110
12036
12002
12004
11927
11837
11758
11772
11922
11974
11922
11908
11906
11913
12049
12123
12116
12132
12104
11978
11988
12018
12022
11998
12017
12053
11952
11889
11886
11915
11866
11862
11758
11611
11614
11778
11879
11863
11880
11995
11979
11903
11916
11966
11942
11971
11910
11869
11800
11810
11879
11922
12097
12201
12255
12235
12196
12204
12200
12170
12167
12151
12061
12070
12069
11972
11852
11863
11832
11832
11849
11935
12007
12120
12164
12238
12241
12207
12197
12248
12236
12271
12283
12247
11901
11810
11814
11812
11737
11641
11432
11386
11334
11435
11553
11732
11827
11945
11969
11983
11865
11793
11836
11953
12059
12111
12282
12302
12295
12248
12243
12199
12140
12095
12044
11993
11935
11873
11873
11860
11875
11938
11926
11880
11863
11811
11760
11718
11755
11795
11801
11803
11817
12014
12045
12082
12186
12211
12078
12073
12080
12058
12050
12040
12104
12056
12045
11964
11941
11958
11926
11988
12081
12102
12156
12012
11913
11905
11931
11951
12069
12146
12177
12156
12164
12179
12161
12082
12001
11871
11670
11469
11528
11597
11605
11578
11695
11665
11591
11633
11706
11806
11967
12047
12112
12118
12116
12206
12293
12314
12317
12266
12267
12110
12100
12159
12139
12068
12109
12137
12195
12225
12222
12168
12044
11935
11958
11876
11737
11547
11524
11552
11630
11870
12148
12205
12242
12295
12313
12303
12245
12238
12261
12226
12155
11894
11664
11453
11364
11281
11217
11257
11319
11345
11382
11418
11686
11749
11801
11850
11975
12142
12235
12345
12371
12379
12359
12328
12273
12239
12211
12161
12109
12100
12096
12106
12045
11924
11949
11960
11972
12018
12113
12136
12124
12096
12068
12041
12020
12077
12177
12166
12143
12211
12142
12059
12074
12132
12159
11984
11951
11903
11871
11838
11801
11736
11733
11799
11782
11826
11913
11950
11938
11778
11582
11547
11500
11434
11475
11556
11675
11731
11725
11698
11674
11727
11970
12060
12158
12205
12233
12187
12117
12167
12217
12276
12404
12528
12496
12490
12487
12531
12491
12407
12348
12328
12302
12293
12143
11973
11831
11740
11674
11439
11243
11121
10954
10835
10845
11151
11419
11588
11814
11968
12148
12233
12229
12242
12168
12148
12206
12150
12138
12217
12281
12318
12361
12323
12263
12209
12249
12271
12303
12338
12333
12318
12149
12086
12037
12021
11956
11964
11943
11882
11765
11681
11618
11554
11507
11468
11560
11652
11746
11756
11762
11767
11777
11929
12046
12126
12269
12441
12603
12713
12701
12734
12708
12647
12609
12599
12483
12383
12238
12050
11796
11778
11815
11896
11883
11450
11210
10975
10724
10578
10590
10686
10813
10980
11209
11438
11657
11717
11765
11737
11708
11807
11877
11942
12040
12239
12371
12416
12472
12550
12544
12583
12644
12687
12722
12719
12738
12747
12661
12605
12548
12441
12354
12272
12176
12094
12040
12002
11862
11814
11751
11696
11611
11502
11418
11403
11405
11399
11414
11546
11542
11512
11546
11576
11633
11874
12001
12122
12297
12492
12595
12519
12435
12462
12409
12260
12309
12352
12359
12385
12432
12208
11951
11641
11402
11254
11209
11261
11282
11299
11385
11504
11724
11816
11934
12045
12153
12174
12183
12177
12155
12152
12150
12062
12014
12017
12039
12037
12122
12187
12246
12282
12342
12574
12582
12516
12497
12462
12395
12313
12245
12174
12067
12051
12120
12129
12035
11881
11713
11482
11071
10996
10975
10965
10993
11246
11384
11466
11598
11779
12115
12319
12445
12523
12443
12354
12464
12514
12473
12473
12450
12328
12243
12132
11967
11846
11656
11546
11502
11477
11403
11370
11252
11247
11319
11401
11488
11576
11980
12126
12270
12461
12578
12685
12755
12780
12764
12702
12602
12542
12405
12280
12258
12303
12195
12190
12201
12152
12001
11529
11280
11082
10986
10901
10784
10849
11017
11261
11414
11559
11983
12154
12245
12282
12324
12427
12487
12606
12725
12782
12899
12947
12943
12843
12719
12542
11997
11769
11711
11818
11925
11938
11893
11800
11634
11381
11095
10594
10406
10280
10156
10188
10457
10718
11006
11341
11653
11989
12555
12778
12970
13225
13342
13281
13217
13085
12981
12896
12847
12718
12653
12608
12534
12353
11811
11624
11395
11184
11138
11242
11315
11257
11193
11142
11069
11347
11587
11774
11981
12125
12249
12311
12364
12399
12447
12472
12560
12702
12744
12750
12783
12750
12700
12785
12885
12879
12885
13004
13051
12983
12798
12496
11846
11493
11235
11107
11122
11153
11200
11293
11285
11190
11090
10548
10106
9902
9802
9744
9744
9942
10170
10495
10855
11581
11900
12179
12393
12597
12833
12836
12907
12928
12950
12964
12958
12926
12865
12790
12669
12710
12816
12823
12827
12860
12759
12500
12476
12426
12336
12278
12110
11968
11888
11880
11926
11747
11660
11626
11662
11634
11474
11232
11153
11100
11092
11049
11258
11520
11762
11990
12196
12421
12699
12680
12736
12872
13027
13253
13335
13321
13259
13190
13035
12941
12713
12500
12337
12095
11653
11503
11255
10904
10577
9991
9706
9515
9380
9376
9592
9794
10014
10274
10476
10637
10831
11360
11586
11764
11961
12221
12443
12726
12719
12803
12855
12909
13273
13430
13515
13525
13549
13491
13372
13268
13178
13065
12901
12750
12658
12604
12606
12626
12550
12469
12296
12100
11778
11413
10811
10577
10405
10400
10530
10799
11034
11259
11380
11483
11855
11982
12028
12037
12071
11999
12110
12286
12477
12556
12598
12652
12597
12494
12362
12242
12113
11609
11295
10869
10531
10362
10464
10506
10582
10689
10924
11397
11563
11785
11996
12116
12165
12524
12618
12662
12716
12809
12957
13065
13099
13093
13047
13014
13048
13057
13037
12965
12963
12854
12780
12681
12547
12375
12213
11960
11859
11764
11638
11578
11550
11485
11486
11522
11568
11360
11156
10946
10751
10602
10498
10381
10512
10837
11188
11609
12350
12695
12852
12853
12812
12726
12587
12528
12540
12559
12580
12609
12659
12640
12522
12338
11789
11483
11195
10910
10662
10457
10492
10697
10970
11187
11354
11661
11622
11608
11745
11887
11943
12104
12192
12238
12264
12372
12441
12447
12375
12366
12443
12482
12448
12484
12549
12648
12719
12923
12951
12907
12911
12962
13321
13335
13313
13255
13195
13104
12742
12376
11918
11488
11104
10332
10176
10125
10134
10264
10496
10971
11051
11018
10917
10714
10332
10365
10474
10639
10784
11536
12001
12435
12988
13454
13862
14398
14458
14430
14421
14369
14147
13931
13754
13667
13650
13539
12878
12594
12307
12050
11769
11368
10896
10252
9558
8810
7877
6914
6009
5426
5280
5761
6564
7590
8848
9978
10854
12152
12755
13415
13935
14373
14636
14537
14461
14396
14278
14167
14084
13966
13808
13668
13565
13428
13136
12939
12818
12646
12450
12410
12412
12353
12313
12246
12152
11941
11835
11734
11636
11571
11402
11248
11127
11124
11253
11393
11389
11403
11485
11556
11618
12002
12116
12316
12419
12529
12755
12801
12814
12845
12783
12698
12534
12434
12337
12240
12283
12296
12261
12325
12342
12251
12080
11980
11799
11546
11231
10926
10452
10252
10161
10231
10366
10666
10909
11172
11383
11592
11780
12225
12592
12839
13005
13191
13468
13608
13589
13502
13378
13302
12880
12715
12615
12629
12615
12360
12278
12102
11803
11426
10637
10296
9988
9758
9569
9415
9326
9399
9512
9715
10011
10414
10976
11945
12165
12294
12335
12423
12593
12840
12837
12735
12638
12623
12881
12966
13124
13298
13319
13493
13735
13784
13717
13614
13531
13238
13205
13254
13244
13155
13024
12910
12611
12336
12071
11772
10980
10516
10131
9905
9751
9643
9624
9596
9479
9331
9235
9244
9283
9461
9778
10142
10666
10861
11190
11738
12265
13219
13662
13879
13986
14014
14061
14020
13925
13866
13831
13726
13280
13025
12805
12510
12148
11920
11660
11598
11548
11618
11685
11875
11827
11649
11440
11224
11316
11405
11456
11416
11273
11168
11015
10936
10839
10719
10632
10369
10380
10516
10780
11188
11751
12826
13351
13870
14273
14503
14524
14311
14082
13842
13579
13265
12864
12842
12731
12546
12454
12334
12152
11870
11438
10832
9593
9110
8852
8714
8709
8872
9277
9909
10583
11194
11746
12203
12555
13083
13272
13303
13246
13153
13044
12805
12693
12616
12567
12545
12576
12506
12475
12466
12480
12499
12504
12451
12381
12248
12044
11835
11762
11646
11593
11510
11486
11458
11454
11499
11578
11635
11742
11918
12019
11966
11924
12153
12295
12487
12744
12847
12710
12652
12582
12444
12310
12187
12083
11999
11977
12060
12070
11701
11573
11545
11637
11687
11720
12026
12224
12351
12370
12318
12102
12002
11903
11955
11919
11792
11664
11527
11437
11466
11543
11590
11486
11226
10842
10485
9872
9690
9583
9585
9777
10300
10912
11580
12172
12779
13875
14274
14621
14757
14687
14549
14297
14286
14226
14052
13795
13284
12889
12561
12143
11640
11031
9947
9440
8930
8477
8133
8074
8287
8620
8931
9193
9504
9873
10308
10916
11620
12280
13199
13567
13710
13622
13540
13458
13458
13510
13452
13320
13164
12987
13031
13022
12975
12980
13077
13092
13132
13174
13195
13127
13066
13115
13013
12883
12797
12481
12324
12129
11922
11650
11010
10637
10295
10037
9734
9600
9442
9504
9704
10033
10584
10661
10693
10676
10750
10944
11615
12006
12358
12607
12687
12695
12658
12663
12732
12873
12947
13129
13236
13348
13394
13412
13501
13658
13838
13979
14079
14134
13927
13677
13311
12952
12608
11727
11259
10890
10767
10705
10508
10402
10214
9921
9613
9374
9018
8591
8261
8111
8104
8331
8780
9348
10020
10710
12042
12566
13038
13443
13848
14461
14568
14481
14328
14123
13915
13679
13468
13263
13121
13096
13256
13321
13303
13355
13469
13538
13688
13899
13911
13536
12950
11720
11189
10726
10287
9916
9657
9437
9421
9544
9570
9512
9473
9495
9594
9676
9795
9921
10092
10402
10785
11207
11598
11992
12552
12818
13273
13660
13828
13905
13623
13339
13199
13089
13086
13204
13320
13386
13352
13265
12897
12960
12981
12902
12679
12077
11702
11236
10673
10093
9438
8916
8669
8493
8578
8865
9369
10043
10754
11553
12274
12819
13197
13612
13666
13572
13517
13518
13403
13216
13138
13051
12944
12964
13067
13125
13210
13335
13443
13257
13091
12928
12716
12441
11908
11704
11490
11234
11114
11125
11098
10976
10789
10541
10217
9855
10044
10404
10759
10993
11079
11651
12047
12352
12625
12836
13024
13385
13470
13521
13555
13442
13228
13201
13159
13043
12794
12415
11808
11463
11184
11044
11062
11033
10954
11039
11049
11115
11427
11583
11679
11813
12017
12186
12193
12104
12016
11873
11611
11248
11164
11240
11362
11552
11787
12139
12297
12369
12391
12326
12482
12691
12763
12593
12436
12313
11903
11748
11621
11564
11501
11460
11557
11662
11700
11689
11625
11643
11741
11836
11892
12019
12300
12493
12633
12742
12797
12657
12598
12723
12769
12643
12485
12583
12705
12765
12636
12456
11792
11488
11224
11018
10853
10520
10405
10397
10555
10950
11502
12453
12711
12682
12443
12226
11930
11671
11378
11287
11158
11023
10901
11114
11435
11751
12018
12357
12589
12793
12906
13006
12821
12633
12649
12709
12798
12751
12291
12118
12027
11890
11726
11582
11492
11553
11920
12298
12406
12673
12873
13022
13009
13008
12746
12410
12025
11722
11479
11265
11183
11364
11632
11904
12154
12309
12152
11927
11762
11781
12126
12295
12376
12334
12210
11960
11578
11539
11451
11348
11113
10217
9885
9820
9871
9903
9970
10122
10310
10554
10847
11554
11808
12212
12713
13174
13570
14048
14119
14051
13855
13595
13204
12962
12654
12450
12206
11963
12037
12109
12003
11703
11350
10892
10823
10819
10991
11379
12052
12253
12431
12535
12603
12754
13120
13208
13304
13498
13616
13544
13368
13078
12761
12465
12085
11346
10955
10586
10319
10150
10028
9980
9911
9785
9772
9768
9684
9561
9464
9594
9924
10420
10990
11460
11902
12691
13045
13273
13442
13586
13663
13674
13637
13576
13556
13477
13369
13241
13146
13083
13143
13204
13114
13106
13138
13131
13219
13176
13029
12846
12559
12235
11780
11604
11492
11426
11374
10953
10874
10784
10426
9892
9267
8706
8452
8483
8846
9430
10054
10832
11085
11457
11855
12239
12828
12961
12930
12837
12766
12807
13037
13145
13235
13242
13252
13119
13088
13032
12825
12476
12085
11956
11876
11881
12066
12300
12824
12946
12942
12823
12710
12594
12588
12553
12508
12401
12231
12045
12030
11956
11775
11586
11295
11043
10617
10184
9797
9523
9318
9223
9222
9308
9606
10112
11119
11542
11818
12078
12307
12600
12854
13168
13387
13517
13612
13635
13557
13404
13238
13100
12783
12476
12265
12067
11856
11608
11321
11242
11244
11374
11651
11857
11920
11977
12136
12243
12195
12402
12674
12832
12834
12892
12913
12856
12725
12510
12317
12227
12221
12084
11819
11559
11338
10778
10666
10677
10645
10604
10581
10646
10835
11076
11426
11695
12035
12334
12512
12601
12616
12288
12095
11886
11761
11774
11935
12116
12506
12884
13045
12968
12767
12667
12361
11960
11565
11089
11070
11282
11388
11423
11306
11128
11283
11451
11624
11826
12027
12092
12184
12278
12427
12791
13069
13320
13422
13361
13314
13168
13131
13168
13206
13109
12648
12392
12147
11884
11602
11443
11025
10910
10885
10830
10672
10100
9883
9768
9856
10207
10727
11235
11722
12171
12359
12494
12581
12614
12659
12786
12761
12697
12618
12483
12118
11851
11636
11401
11039
10744
10527
10693
11015
11505
11944
12661
12879
12958
12956
13001
13252
13261
13267
13328
13280
13136
12858
12807
12770
12734
12629
12466
12303
12126
12006
11821
11550
11089
10730
10464
10433
10642
11570
11949
12182
12264
12181
12101
12038
11934
11813
11696
11509
11141
10938
10779
10670
10688
10871
11055
11338
11669
11858
11921
11621
11569
11585
11686
11897
12284
12424
12502
12551
12528
12687
12767
12749
12822
12883
12885
12793
12803
12712
12582
12525
12519
12527
12480
12475
12523
12362
11822
11676
11507
11352
11267
11149
11164
11229
11388
11505
11640
12029
12086
12056
11959
11855
11625
11501
11451
11534
11762
12192
12336
12455
12388
12303
12149
11947
12001
12100
12190
12292
12394
12372
12362
12219
12069
11968
11753
11623
11632
11725
11822
12188
12266
12229
12193
12208
12085
11838
11537
11276
11054
10911
10626
10688
10908
11121
11268
11562
11706
11933
12194
12381
12512
12868
13080
13244
13299
13310
13200
13120
13037
12962
12876
12785
12487
12267
12035
11625
11193
10603
10268
10081
9961
10032
10264
10920
11266
11656
12023
12289
12513
12864
12850
12846
12816
12736
12411
12311
12179
12080
12028
12050
12136
12100
11939
11771
11750
11715
11770
11832
11798
11768
11897
11943
11980
12031
12179
12303
12468
12485
12459
12393
12356
12206
12177
12128
12028
11955
11880
11757
11822
11907
11850
11826
11644
11457
11331
11344
11441
11462
11519
11618
11754
11860
12008
12341
12312
12248
12203
12162
12148
12127
12128
12099
12094
12124
12225
12185
12084
12047
12047
12102
12184
12348
12551
12644
12704
12784
12679
12458
12261
12148
11885
11848
11863
11790
11638
11265
11160
11223
11400
11542
11503
11180
10984
11022
11197
11244
11366
11409
11330
11277
11279
11439
11946
12185
12405
12569
12703
12965
13136
13178
13113
13025
12765
12603
12469
12380
12160
11797
11352
11410
11490
11464
11226
10630
10517
10639
10966
11337
11577
12048
12244
12346
12505
12649
12762
12801
12897
12921
12925
12800
12711
12600
12495
12397
12320
12278
12122
11871
11677
11570
11550
11573
11582
11527
11542
11591
11822
11885
11920
11919
11887
11889
11960
12001
11968
11952
11987
11977
11845
11716
11674
11638
11662
11703
11737
11691
11710
11879
12008
12055
12056
12129
12234
12299
12343
12359
12319
12254
12243
12322
12460
12531
12471
12436
12270
12212
12141
12094
12091
12085
12068
12032
11940
11832
11566
11407
11308
11294
11265
11296
11541
11598
11625
11622
11748
11958
11943
11895
11939
11895
11782
11790
11922
12029
12073
12127
12209
12210
12213
12241
12269
12277
12222
12200
12152
12046
12064
12147
12098
12040
11865
11730
11583
11627
11698
11776
11862
11960
12212
12208
12198
12309
12453
12520
12430
12285
12094
11912
11746
11429
11381
11449
11642
11818
12168
12186
12113
11953
11730
11511
11645
11759
11778
11917
11964
11973
11949
11889
11839
11863
11943
11981
12004
11978
11880
11854
11794
11792
11844
11921
11991
12056
12068
12055
12025
11994
12087
12139
12181
12185
12211
12260
12284
12324
12388
12369
12282
12098
12087
12068
12132
12227
12279
12070
11936
11881
11823
11715
11248
11019
10815
10705
10831
11081
11752
12085
12356
12477
12612
12679
12654
12549
12387
12267
12131
12089
12089
12117
12110
12083
11844
11518
11336
11233
11201
11325
11539
11750
11891
11989
12002
12160
12188
12221
12251
12308
12373
12399
12385
12365
12307
12128
12031
11906
11854
11880
11891
12020
11990
11888
11864
11840
11861
11919
12012
12004
12001
12042
12094
12100
12115
12143
12181
12332
12391
12357
12317
12246
12181
12133
12091
12061
12024
11955
11902
11858
11667
11415
11124
11115
11472
11726
11848
11819
11672
11325
11354
11514
11622
11782
12091
12089
12054
12088
12147
12190
12229
12220
12102
12021
11990
12174
12238
12191
12139
12152
12098
12054
12104
12150
12177
12095
11974
11929
11949
11942
11970
12149
12144
12139
12161
12149
12089
11943
11923
11890
11830
11763
11724
11714
11761
11761
11828
11845
11892
11976
12008
12004
12012
12039
12002
11988
12016
12024
12089
12082
12115
12067
12086
12101
12077
12053
12024
12016
11999
11931
11901
11940
11879
11803
11848
11858
11877
11920
11964
12008
11910
11843
11838
11886
11870
11966
12034
12048
12040
12016
12031
11936
11969
12028
12028
11993
11987
12043
12083
12011
11905
11943
11923
11918
11990
12063
12081
12140
12120
12138
12120
12068
12111
12099
11968
11965
11915
11894
11851
11816
11837
11811
11796
11602
11403
11356
11470
11621
11815
11976
12022
12053
12141
12171
12196
12191
12130
12151
12234
12266
12271
12266
12233
12220
12157
12242
12271
12159
12071
11987
11718
11568
11470
11514
11624
11662
11522
11429
11449
11485
11588
11889
11996
11998
12071
12152
12215
12272
12391
12373
12316
12289
12373
12327
12289
12283
12239
12117
12079
12003
11961
11883
11802
11806
11746
11711
11714
11817
11965
12009
11973
11920
11878
11877
11824
11955
12065
12097
12110
12121
12068
12067
12059
12034
12033
12004
11927
11840
11799
11740
11642
11583
11578
11575
11684
11900
11989
12042
12062
12071
12104
12127
12094
12161
12180
12154
12156
12106
12054
12044
12048
12048
11973
11977
11959
11950
11932
11872
11898
11877
11873
11919
12002
12016
12034
12026
12003
11993
12033
12037
12067
12079
12049
12015
12034
12028
11983
11967
11912
11813
11803
11800
11809
11802
11770
11815
11865
11925
11913
12081
12079
12092
12073
12037
12061
12132
11993
11835
11852
11895
12067
12039
12056
12064
12066
12083
12062
12025
11982
11932
11914
11789
11773
11860
11894
11839
11891
11912
11842
11835
11851
11925
11942
11908
11874
11908
12036
12228
12213
12191
12193
12181
12162
12065
12046
12061
12050
11941
11565
11401
11409
11510
11604
11685
11945
12010
12027
12050
12060
12132
12136
12115
12065
12039
12087
12091
12086
12111
12128
12100
12066
12057
12062
12047
12052
12039
11927
11894
11902
11910
11870
12010
12056
12081
12101
12073
12032
12021
11989
11937
11960
11980
11983
11983
11961
11887
11822
11839
11784
11703
11727
11785
11888
11902
11861
11886
11928
11966
12049
12078
12103
12082
12093
12055
12024
12024
11999
11982
12064
12127
12096
12014
11953
11899
11882
11936
11952
11911
11888
11945
11951
11893
11951
11990
11991
12040
12041
12043
12022
11991
11895
11902
11971
11989
11968
12041
12160
12155
12130
12142
12085
12105
12090
12074
12070
12046
11994
12020
11911
11768
11679
11620
11651
11743
11811
11828
11749
11651
11710
11810
11900
12001
12084
12224
12278
12329
12292
12232
12160
12158
12146
12100
12086
12073
11879
11864
11793
11833
11838
11807
11824
11835
11855
11885
11877
11868
11892
11930
11978
11990
12038
12049
12070
12048
12010
11919
11958
11931
11927
11878
11884
11909
11960
11924
11911
11876
11949
12013
12017
12038
12074
12071
12021
11979
12013
12045
12002
12056
12033
12086
12104
12075
12007
12008
11992
12001
11972
11963
11995
11968
11948
11884
11868
11878
11869
11909
11944
11967
11981
11949
11936
11940
12005
11994
12071
12069
12097
12058
12061
12010
11996
11984
11989
11959
11965
11974
11967
11956
11857
11862
11910
11897
11895
11912
11871
11860
11785
11752
11819
11919
11969
12087
12169
12180
12129
12134
12073
12028
12028
12005
11994
11959
11904
11836
11828
11826
11813
11901
11900
11923
11901
11876
11900
11919
11884
11883
11963
12007
12030
12120
12116
12083
12080
12114
12043
12017
12037
12038
12020
12008
12009
12032
11992
11909
11874
11872
11859
11890
11946
12000
12019
12011
11958
11945
11963
11974
12026
12076
12046
12069
12055
11987
11976
12004
12019
12012
11961
11949
11962
11971
11935
11882
11909
11915
11877
11951
12037
12048
12027
11943
11900
11919
11959
11945
12055
12115
12058
11997
11827
11753
11730
11778
11832
11900
11959
11988
11995
11991
11916
11944
11989
11983
11998
12035
12096
12140
12103
12098
12069
12177
12127
12017
11934
11873
11868
11951
11975
11970
11964
11968
11914
11903
11849
11822
11800
11741
11701
11743
11798
11859
11954
12057
12077
12099
12037
12003
12047
12038
12035
12129
12120
12111
12162
12170
12190
12190
12150
12096
12052
12056
12021
11971
11971
11903
11879
11795
11699
11674
11731
11738
11756
11763
11825
11910
11952
11976
12028
12071
12127
12128
12091
12013
11993
12035
12032
11995
11990
12029
12052
12028
11885
11929
11911
11880
11852
12016
12019
12042
12015
11991
11994
11977
11997
12021
12093
12101
12025
12017
11987
11993
11964
11986
12000
11980
12008
12027
12050
11939
11898
11883
11915
11908
11982
12008
11993
11990
11953
11926
11893
11857
11802
11870
11934
11895
11897
11871
11859
11871
11948
11962
11991
11997
12025
12065
12031
11966
11925
11903
11878
11934
11999
12041
12091
12099
12082
12068
12055
12033
11996
12055
12080
12066
12064
12037
12000
11974
11925
11878
11827
11818
11811
11822
11775
11818
11867
11910
11994
12015
12030
12020
12022
11934
11892
11872
11885
11917
11988
12048
12063
12053
12054
12039
12048
12063
12047
12025
12016
12029
11996
11956
11863
11859
11843
11906
11984
12048
12054
12057
12048
11974
11981
11988
11992
12011
12053
12081
12046
12004
11939
11872
11935
11971
11973
11998
12042
12050
12036
11929
11910
11909
11945
11945
11983
11984
11969
11915
11736
11638
11641
11697
11746
11934
12015
12082
12104
12119
12093
12151
12122
12111
12086
12117
12082
12023
11947
11871
11906
11876
11945
11953
11981
12000
12021
11996
11968
12004
12003
12012
12147
12152
12178
12168
12127
12041
11955
11911
11879
11823
11721
11715
11736
11724
11695
11770
11842
11971
11998
12037
12061
12042
12001
12005
12021
12041
12052
12079
12135
12153
12124
12077
11996
11873
11860
11854
11873
11860
11997
12048
12030
11956
11902
11816
11730
11786
11927
12043
12090
12120
12085
12071
12055
12027
11981
11981
12036
12036
11981
11963
11894
11916
11991
12001
12019
12077
12080
12113
12058
11950
11975
11966
11953
11988
11988
11990
11949
11927
11888
11874
11874
11854
11935
11960
12029
12078
12118
12144
12135
12143
12119
12111
12033
12058
12041
11967
11847
11733
11723
11789
11918
12015
12036
12093
12037
11997
11956
12003
12054
12051
12058
12088
12105
12037
11901
11871
11877
11891
11917
11941
11971
12018
11982
11915
11782
11723
11751
11806
11882
11917
11947
11984
12033
12120
12190
12224
12229
12310
12310
12356
12310
11859
11710
11664
11635
11586
11484
11359
11430
11492
11529
11381
11427
11647
11880
12093
12257
12314
12277
12252
12158
12092
12126
12203
12212
12299
12379
12385
12334
12293
12236
12204
12130
12078
11949
11931
11869
11803
11718
11685
11776
11786
11804
11843
11823
11819
11839
11829
11859
11896
12020
11999
12094
12153
12189
12160
12172
12151
12140
12106
12113
12067
12087
12091
12101
12049
11977
12001
11990
11965
11979
12020
12023
11962
11802
11658
11614
11860
11893
11913
11953
11949
11943
11948
11951
11883
11911
11950
11953
11984
11995
12034
12032
11868
11878
11941
11997
12066
12261
12469
12542
12597
12607
12569
12477
12442
12411
12371
12216
11809
11621
11442
11329
11249
11071
10846
10864
10905
10966
11071
11245
11362
11538
11752
11923
12148
12483
12580
12620
12605
12589
12476
12436
12394
12425
12452
12419
12280
12166
11986
11792
11536
11278
11306
11335
11435
11512
11576
11606
11716
11865
12064
12151
12299
12360
12368
12335
12313
12225
12225
12153
11998
11941
11963
12142
12187
12172
12097
11982
11902
11931
11968
12039
12055
12029
11893
11816
11797
11825
11885
11935
11929
11933
11941
11913
11880
11920
11956
11957
12020
12033
12023
12086
12116
12093
12064
12103
12100
12103
12138
12243
12292
12169
12055
11939
11868
11855
11850
11835
11763
11760
11786
11795
11813
11835
11877
11853
11906
11933
11873
11771
11678
11712
11887
11983
12060
12099
12142
12180
12124
11998
11937
11950
11896
11985
12009
12010
11974
11945
11980
11981
12018
12072
12117
12302
12469
12478
12458
12434
12348
12286
12239
12185
12125
12168
12220
12091
11941
11716
11413
11146
10812
10841
11000
11219
11460
11808
11959
12101
12274
12403
12486
12597
12594
12571
12519
12383
12021
11848
11754
11706
11752
11869
12000
11925
11749
11653
11558
11512
11627
11756
11780
11761
11726
11786
11829
11858
11864
11839
11983
12064
12170
12286
12375
12542
12587
12549
12480
12401
12326
12319
12320
12312
12283
12304
11949
11682
11487
11359
11274
11171
10973
10986
11085
11251
11399
11753
11919
12061
12167
12243
12280
12300
12275
12265
12244
12231
12229
12218
12150
12014
11960
12062
12007
12039
12057
12077
12134
12221
12172
12128
12151
12152
12062
12117
12159
12156
12182
12141
12027
12032
11979
11882
11783
11917
12001
11980
11905
11851
11805
11817
11838
11874
11987
12065
12119
12040
12048
11995
11935
11713
11749
11728
11670
11581
11548
11618
11766
11885
11990
12062
12162
12162
12138
12108
12044
12035
12034
12086
12094
12150
12232
12248
12210
12217
12222
12196
12082
12127
12101
12120
12158
12188
11975
11849
11765
11710
11727
11743
11725
11674
11628
11569
11655
11676
11717
11714
11783
11893
12122
12167
12270
12447
12526
12505
12474
12529
12511
12495
12482
12227
12096
12037
11985
11908
11703
11685
11681
11611
11544
11459
11346
11278
11139
11158
11247
11475
11658
11807
11996
12155
12242
12171
12239
12330
12371
12363
12333
12283
12243
12226
12178
12013
11948
11848
11758
11759
11732
11987
12097
12081
12031
11995
12046
12173
12240
12300
12365
12601
12601
12558
12485
12389
12275
12066
12063
12147
12226
12268
12260
12262
12218
12127
11926
11609
10985
10760
10573
10340
10319
10435
10507
10581
10704
10869
10999
11349
11512
11768
12024
12214
12481
12519
12559
12629
12667
12784
12794
12756
12746
12698
12597
12432
12447
12391
12380
12362
12351
12307
12299
12256
12206
12192
11996
11981
12048
12124
12143
12079
12045
11983
11940
11887
11951
11943
11992
12046
12065
12044
11996
12015
12015
12072
12094
12232
12256
12262
12270
12237
12246
12344
12320
12277
12261
12137
11827
11750
11607
11522
11423
11194
11088
10997
10934
10960
11071
11147
11219
11311
11370
11462
11636
11725
11773
11865
11958
12068
12384
12542
12620
12711
12825
13001
13013
13049
13064
13073
13095
13051
12988
12953
12890
12737
12286
12017
11811
11539
11246
10892
10817
10814
10861
10952
10974
10907
10771
10494
10150
10020
10146
10331
10655
11079
11476
11883
12491
12713
12929
13129
13218
13293
13189
13075
13014
12954
12857
12812
12746
12744
12779
12793
12746
12606
12400
12143
11887
11251
10933
10749
10733
10760
10834
11191
11352
11533
11695
11801
11933
11892
11895
11992
12072
12175
12318
12369
12376
12349
12319
12251
12282
12293
12305
12357
12357
12292
12190
12129
12079
12085
12188
12144
12110
12183
12294
12113
11981
11855
11903
11970
11934
11943
11970
12066
12135
12155
11918
11864
11849
11802
11694
11461
11425
11364
11297
11221
11169
11098
11169
11310
11499
11689
12062
12243
12357
12439
12532
12610
12693
12736
12771
12677
12582
12386
12351
12338
12333
12360
12401
12364
12301
12264
12189
12059
11971
11941
11854
11747
11656
11656
11672
11616
11468
11432
11455
11335
11236
11061
10854
10673
10556
10576
10614
10788
11078
11353
11935
12166
12270
12410
12481
12486
12664
12867
13040
13187
13416
13445
13469
13407
13281
13142
12864
12709
12528
12357
12082
11610
11466
11385
11343
11341
11225
10760
10609
10479
10391
10304
10229
10353
10554
10792
11110
11834
12116
12336
12512
12620
12670
12842
12858
12775
12669
12555
12515
12472
12445
12499
12567
12580
12634
12672
12604
12505
12466
12334
12275
12207
12142
12076
12009
11988
12043
12061
12000
11938
11806
11731
11713
11655
11635
11638
11609
11606
11670
11759
11847
12071
12206
12260
12270
12225
12147
12178
12219
12208
12186
12132
12070
12101
12160
12218
12218
12151
12088
12019
12031
11986
11875
11721
11543
11390
11294
11285
11176
11164
11163
11207
11327
11588
11604
11687
11873
12010
12035
12049
12144
12265
12303
12260
12156
12171
12245
12281
12311
12333
12684
12823
12914
13055
13114
12998
12933
12883
12830
12774
12697
12642
12580
12506
12367
12139
11527
11244
10875
10479
10029
9280
9033
8779
8567
8600
8826
9244
9684
10132
10543
11051
11637
12276
13358
13780
14037
14229
14385
14250
14028
13842
13701
13497
13290
12938
12841
12794
12786
12683
12310
12103
11889
11658
11327
10924
10295
10083
9985
9980
10142
10472
10857
11647
11968
12259
12524
12716
12919
12954
12943
12894
12854
12807
12672
12575
12414
12280
12196
12042
12082
12162
12261
12339
12294
12143
12018
11889
11717
11555
11454
11474
11494
11501
11614
11936
12055
12111
12101
12056
12087
12178
12163
12142
12050
12061
12154
12162
12081
12017
11926
11850
11676
11593
11540
11464
11403
11318
11360
11349
11513
11776
12023
12251
12459
12591
12650
12721
12864
12872
12910
12862
12700
12453
12376
12295
12199
12137
12094
12053
11945
11739
11445
11137
10704
10595
10545
10683
10851
11038
11041
11065
11138
11186
11193
11344
11427
11574
11762
11912
12425
12533
12610
12662
12665
12658
12650
12621
12600
12645
12699
12848
12986
13103
13157
13131
13086
12837
12724
12617
12442
12284
12041
11982
11924
11895
11842
11612
11401
11159
10789
10396
10063
9874
9911
10039
10357
10766
11106
11348
11901
12238
12506
12732
12915
13170
13264
13262
13170
13051
12943
12794
12748
12671
12469
12239
11942
11801
11662
11490
11337
11249
11264
11245
11203
11172
11191
11438
11640
11910
12233
12421
12509
12480
12453
12354
12184
11986
11713
11671
11702
11701
11744
11951
12055
12104
12170
12211
12201
12132
12074
12024
12017
12049
12173
12314
12367
12406
12408
12475
12485
12484
12505
12484
12416
12223
12149
12088
12044
11915
11806
11754
11676
11644
11616
11542
11424
11341
11258
11179
11131
11025
11074
11201
11405
11652
11863
12209
12348
12475
12539
12608
12728
12707
12637
12540
12412
12146
12088
11961
11993
12121
12171
12017
12100
12178
12302
12361
12285
12370
12479
12506
12452
12390
12297
12154
12028
11922
11848
11832
11816
11678
11433
11150
10819
10713
10543
10310
10227
10199
10472
10735
11001
11277
11586
12035
12190
12391
12524
12592
12570
12507
12468
12518
12571
12665
12821
12828
12827
12720
12553
12435
12305
12188
12143
12159
12198
12165
12134
12122
12130
12197
12373
12391
12378
12412
12437
12412
12148
11985
11809
11624
11451
10946
10686
10518
10438
10456
10651
11239
11559
11848
12160
12475
13012
13199
13355
13406
13398
13313
13053
12944
12945
12867
12726
12436
12298
12207
12211
12211
12061
11667
11104
10493
9919
9396
9034
8922
9030
9286
9688
10154
11135
11555
11963
12346
12610
12826
13071
13061
13057
13031
13011
12920
12881
12805
12807
12854
12853
12737
12674
12583
12465
12382
12436
12567
12573
12473
12376
12294
12286
12242
12195
12112
12039
11857
11804
11682
11589
11426
11037
10938
10896
10800
10719
10641
10731
10912
11129
11442
11861
12732
13228
13600
13817
13882
13847
13759
13574
13326
13012
12700
12394
12242
12064
11950
11846
11392
10973
10527
10016
9490
9003
8613
8268
8204
8367
8744
9280
9869
10467
11606
12226
12783
13231
13506
13627
13541
13383
13149
12892
12726
12615
12588
12667
12665
12650
12730
12812
12763
12713
12671
12657
12659
12648
12664
12632
12525
12280
12221
12142
12049
11981
11976
11975
11977
11956
11957
11915
11885
11819
11754
11649
11606
11527
11490
11398
11282
11290
11406
11687
11797
11952
12168
12259
12143
12117
12157
12190
12267
12493
12483
12443
12384
12318
12277
12323
12313
12289
12236
12131
11936
11862
11776
11714
11696
11727
11812
11885
11968
12003
12040
11950
11899
11851
11915
12028
12117
12107
12121
12176
12183
12183
12237
12160
11977
11865
11781
11559
11501
11438
11309
11176
11105
10787
10569
10376
10301
10331
10749
11123
11539
11938
12415
13229
13395
13380
13365
13358
13281
13198
13235
13272
13287
13391
13563
13519
13340
13023
12631
12140
10980
10362
9830
9513
9543
9756
10000
10272
10502
10755
10870
10928
10944
10938
10886
10962
10968
10896
10820
10820
11032
11262
11589
11964
12241
12657
12813
12977
13092
13114
13021
13047
13083
13122
13107
13096
13200
13270
13264
13293
13304
13180
13096
13009
12892
12815
12738
12603
12616
12719
12956
13335
14288
14482
14551
14478
14336
14150
13558
13231
12745
12236
11685
10805
10369
10020
9740
9381
8956
8509
8112
7729
7329
6926
6428
5945
5739
6055
6739
7807
9218
10580
12645
13384
13887
14221
14457
14639
14865
14826
14662
14419
14278
14042
13858
13595
13329
13142
12989
12963
12954
12829
12736
12737
12755
12655
12384
12161
12008
11940
11855
11739
11613
11507
11347
10993
10772
10528
10436
10413
10721
10852
10857
10901
10963
11159
11407
11651
11920
12287
12824
13782
14046
14181
14186
14158
14018
13838
13708
13585
13407
13186
12541
12210
11750
11270
10807
9938
9605
9382
9305
9278
9376
9541
9656
9716
9731
9863
10154
10593
11059
11428
11641
11897
12084
12314
12515
12750
13297
13635
13799
13788
13752
13750
13722
13679
13598
13393
13173
12887
12787
12794
12795
12719
12388
12144
11960
11857
11766
11826
12060
12183
12292
12308
12303
12827
13035
13053
12895
12628
12252
11339
10899
10628
10489
10395
9984
9584
9136
8651
8247
7877
7538
7375
7550
8103
8938
9884
10950
12016
12894
13812
15199
15541
15586
15508
15250
15003
14739
14627
14432
14141
13865
13401
13002
12597
12293
11943
11653
11006
10616
10384
10278
10239
10249
10408
10585
10711
10803
11090
11171
11249
11353
11384
11420
11843
12167
12416
12526
12561
12802
12852
12851
12837
12813
12836
12908
12963
13025
13021
12925
12445
12194
12074
11924
11800
11818
11901
12082
12331
12591
12765
12879
12818
12685
12525
12347
11886
11649
11403
11128
10851
10590
10122
9834
9617
9465
9374
9339
9507
9886
10446
10986
11533
12074
12935
13235
13444
13561
13646
13631
13608
13542
13468
13322
12976
12968
12927
12898
12854
12877
12891
12753
12439
12124
11890
11841
11831
11739
11641
11565
11611
11909
12025
12060
12132
12221
12149
12068
11921
11674
11345
10470
10023
9490
9008
8751
8922
9236
9685
10237
10834
11345
12700
13379
13929
14307
14660
14939
14637
14337
14003
13734
13589
13196
12899
12606
12368
12174
12006
11392
11009
10459
9794
9157
8534
8016
7640
7454
7468
7738
8260
8988
9827
10634
12100
12764
13337
13804
14120
14306
14598
14792
14889
14803
14651
14334
14137
13862
13509
13196
12743
12487
12268
12115
11977
11907
11691
11502
11400
11371
11341
11218
11270
11273
11310
11325
11333
11226
11123
11049
10933
10843
11103
11432
11786
12063
12150
12160
12207
12323
12524
12686
12705
12684
12636
12588
12644
12687
12696
12757
12757
12741
12715
12658
12516
12395
12257
12041
11821
11625
11607
11493
11391
11216
11067
11099
11114
11189
11327
11586
11950
11971
11841
11640
11410
11228
11360
11627
11765
11798
11782
11988
12050
12055
12041
12032
11929
11950
12010
12124
12232
12217
12141
12067
12009
11961
11942
11964
11937
11917
11993
12142
12283
12393
12595
12727
12764
12753
12655
12572
12563
12612
12586
12346
12066
11779
11461
11182
10888
10820
11043
11340
11634
11899
11953
11849
11693
11536
11500
11502
11550
11628
11765
11979
12143
12379
12378
12309
12267
12282
12387
12437
12331
12157
11955
11861
11936
12053
12167
12304
12548
12810
12716
12557
12360
12136
11919
11431
11209
11089
10903
10730
10745
10861
11001
11148
11292
11539
11674
11844
11972
12094
12187
12120
12138
12186
12241
12310
12559
12747
12997
13181
13309
13397
13355
13219
13066
12931
12741
12209
12015
11868
11775
11791
11831
11841
11840
11794
11672
11463
10688
10259
9977
9876
9967
10253
10571
10887
11638
12089
12568
12891
12956
12703
12595
12459
12383
12377
12415
12686
12730
12631
12442
12171
11747
11550
11340
11147
10965
10853
10962
11146
11378
11671
11975
12399
12495
12602
12678
12705
12590
12482
12429
12411
12419
12373
12319
12285
12268
12277
12282
12318
12325
12282
12193
12042
11922
11875
11896
11911
11921
11926
12030
12027
11988
11923
11972
12036
11945
11870
11690
11458
11260
11091
11094
11250
11472
11694
11988
12086
12222
12357
12432
12411
12252
12138
12142
12201
12279
12198
12115
12081
12053
11997
11926
11851
11942
12127
12211
12226
12152
11976
11768
11567
11480
11407
11462
11568
11706
11845
11931
11914
11835
11838
11822
11842
11900
11808
11649
11522
11456
11491
11523
11529
11608
11631
11625
11889
11962
12054
12157
12217
12332
12493
12560
12623
12689
12697
12572
12576
12517
12413
12332
12298
12273
12180
12043
11896
11780
11616
11577
11654
11775
11910
12010
11975
11861
11814
11863
11891
11741
11683
11697
11749
11755
11474
11363
11296
11272
11296
11553
11766
11982
12079
12118
12184
12367
12390
12440
12532
12584
12608
12557
12551
12536
12588
12611
12520
12466
12431
12429
12385
12056
11901
11774
11609
11497
11614
11687
11697
11651
11474
11317
11141
11082
11031
11139
11322
11576
11663
11802
12030
12205
12369
12500
12530
12539
12513
12448
12147
11990
11874
11895
12003
12067
12198
12214
12210
12155
12063
12005
11966
11887
11827
11824
11803
11774
11782
11764
11826
11940
12329
12418
12421
12439
12467
12287
12091
11952
11841
11765
11731
11542
11397
11371
11441
11506
11728
11821
11777
11738
11710
11641
11770
11885
12015
12073
12082
12078
12122
12274
12445
12560
12560
12435
12169
11835
11443
11110
11112
11330
11523
11596
11657
11747
11824
11921
11997
12059
12182
12294
12307
12346
12383
12395
12476
12474
12435
12385
12358
12350
12327
12183
12129
12173
12192
12188
12259
12321
12304
12250
12006
11934
11907
11867
11793
11845
11885
11892
11841
11804
11757
11682
11714
11740
11740
11705
11675
11757
11805
11879
11898
11876
11948
12069
12173
12280
12326
12287
12202
12157
12140
12092
12122
12170
12136
12035
11960
11839
11671
11645
11603
11530
11566
11887
12001
12050
11924
11697
11531
11405
11477
11513
11541
11571
11817
11995
12222
12382
12419
12416
12586
12599
12567
12516
12483
12414
12417
12314
12240
12141
12041
12009
11885
11612
11266
11142
11292
11415
11459
11412
11390
11434
11299
11151
11175
11366
11595
12173
12343
12450
12450
12471
12541
12533
12465
12433
12337
12273
12146
12127
12117
12048
12057
11931
11906
11912
11923
11956
12022
12048
12126
12205
12240
12238
12264
12215
12207
12227
12260
12210
12170
12152
12114
12097
12066
12060
12052
12023
11887
11712
11455
11393
11425
11478
11537
11645
11721
11766
11859
11984
12098
12353
12459
12472
12438
12381
12247
12149
12139
12157
12122
11995
11755
11608
11541
11601
11597
11704
11682
11598
11472
11217
11074
11362
11562
11782
12050
12286
12444
12456
12356
12246
12138
11931
11715
11632
11622
11576
11566
11660
11809
12021
12195
12330
12610
12622
12665
12696
12639
12540
12449
12319
12199
12127
12058
11595
11433
11411
11376
11264
11287
11344
11221
11166
11225
11317
11420
11554
11710
11870
11994
12267
12411
12531
12604
12690
12728
12672
12577
12407
12221
12097
12008
12061
12222
12265
12149
12091
11954
11900
11907
11898
11880
11834
11788
11731
11698
11724
11691
11800
11853
11898
11971
12064
12105
12057
12018
11994
11977
12077
12110
12167
12217
12256
12272
12273
12225
12192
12156
12101
12006
12015
12037
12091
12160
12024
11991
11969
11887
11772
11807
11892
11865
11842
11801
11737
11719
11661
11557
11535
11545
11582
11614
11656
11779
11889
11983
12064
12098
12219
12293
12269
12219
12041
11974
11970
11929
11985
12035
12046
12079
12057
12015
11977
11947
11903
11970
12056
12106
12141
12155
12196
12177
12168
12147
12195
12230
12229
12169
12101
11922
11908
11773
11696
11592
11661
11717
11720
11637
11469
11361
11398
11499
11638
11810
11946
12032
12050
12138
12167
12250
12317
12278
12263
12221
12182
12171
12088
12112
12075
11974
11844
11930
11954
12020
12030
11999
11996
11990
12021
12018
12060
12108
12031
12009
11972
11955
11947
12013
12043
12034
12017
12020
11998
11895
11847
11835
11821
11845
11831
11843
11881
11983
11984
11979
11915
11942
11948
12018
12095
12166
12113
12073
11989
11958
12042
12021
11995
11954
11955
11954
11905
11850
11867
11896
11894
11971
11992
12014
12044
12052
12036
11959
11984
12008
12018
12089
12070
12066
12092
12062
12033
12060
12039
11980
11959
11972
11992
11989
11941
11836
11788
11757
11801
11863
11886
11858
11851
11862
11815
11852
11888
11905
11955
11988
12000
11994
12039
12055
12042
12054
12008
11975
11964
11964
12117
12119
11990
11919
11989
12013
12139
12135
12059
11981
11952
11841
11810
11838
11879
11874
12019
12026
11955
11873
11777
11759
11784
11809
11810
11834
11927
12015
12043
12046
12041
12012
11995
11999
12040
12036
12027
12024
12021
12017
12041
12064
12050
12068
12086
12079
12076
12099
12047
11987
12012
11996
11975
11957
11959
11941
11923
11839
11869
11855
11887
11951
11961
11999
12006
11975
11965
11945
11977
11957
12025
12043
12036
12005
12011
11991
12002
11986
11974
11968
11955
11934
11947
11959
11896
11823
11837
11860
11851
11913
11949
11976
12003
11967
11944
11932
11962
11997
12054
12063
12053
12061
12101
12045
12041
12060
12061
12072
12010
11965
11914
11891
11823
11795
11713
11684
11723
11789
11918
12053
12028
11925
11873
11832
11897
12062
12071
12033
12010
11974
11977
12034
12066
12068
12048
12051
12054
12051
12021
11959
11937
11905
11932
11983
11994
12020
12088
12051
12003
12018
12027
12011
12046
12071
12059
12053
12046
11954
11927
11928
11916
11916
11967
12008
12023
12061
12016
11943
11861
11861
11848
11932
11964
12031
12012
11934
11889
11903
11944
11918
12014
12029
12023
11977
11898
11897
11904
11883
11884
11907
11959
12009
12024
12031
11940
11891
11898
11952
11981
12022
12073
12070
12012
11971
11968
11994
12036
12095
12091
12031
12033
12036
12004
12022
12065
12057
12017
12016
12038
12056
12051
12043
11906
11904
11882
11847
11896
11902
11919
11931
11913
11894
11859
11868
11826
11831
11791
11816
11912
11952
11994
12022
12028
12021
11995
11977
11919
11910
11956
11906
11939
11948
11948
11971
12075
12098
12090
12056
12016
12004
12038
12066
12090
12086
12094
12092
12076
12015
12005
12031
12017
11971
11960
11985
11975
11965
11852
11882
11864
11868
11902
11916
11987
11994
11988
11944
11906
11957
11985
11986
12034
12090
12069
12049
12029
11989
11969
11965
12002
12023
12005
11953
11918
11798
11807
11848
11877
11881
11899
11993
12025
12043
11969
11978
12039
12030
12014
12056
12088
12100
12097
12098
12085
12060
12036
11932
11918
11932
11909
11896
11846
11765
11743
11774
11844
11835
11900
11948
11978
11982
11927
11965
11994
12017
12052
12126
12039
12044
12077
12014
11985
11975
12021
12001
12002
11999
11956
11900
11811
11821
11855
11862
11864
11985
11983
12027
12031
12005
11969
11986
12014
12001
12090
12092
12093
12064
12036
12018
11988
11979
11952
11953
11980
11973
11928
11862
11813
11806
11829
11837
11867
11924
11990
12030
12009
11973
11972
11962
11982
12057
12118
12177
12084
11983
11903
11889
11945
11976
11980
11979
12002
12017
11982
11883
11865
11837
11827
11937
11971
12011
12001
12001
11977
11975
11992
11997
11978
12028
12063
12046
12063
12016
12022
11978
11988
11970
11948
11969
11967
11975
11925
11849
11856
11860
11924
11938
11971
12006
11998
11978
11959
11987
12031
12054
12104
12097
12106
12107
12105
12099
12051
12001
11966
11953
11971
11969
11901
11809
11677
11669
11709
11650
11709
11767
11804
11861
11967
11943
11901
11887
11904
11913
12128
12126
12155
12164
12147
12078
12090
12065
12039
12033
12045
12066
12024
11914
11908
11923
11906
11955
11990
11999
12013
11995
11970
11952
11982
12003
11968
12075
12067
12078
12062
12079
12011
11994
11977
11966
11936
11941
11971
11968
11905
11843
11867
11868
11887
11948
12017
12021
12032
11987
11947
11914
11929
11939
12022
12039
12019
12085
12055
11888
11846
11844
11837
11841
11842
11945
11985
11963
11922
11922
11916
11897
11945
11989
12019
12036
12063
12019
12021
12106
12143
12078
12137
12123
12126
12071
12001
11986
11962
11930
11856
11802
11839
11863
11891
11865
11805
11785
11789
11814
11892
11958
12008
11978
11937
11926
11940
11999
12049
12151
12147
12136
12138
12110
12033
12009
12001
11981
11965
11991
12025
12057
12012
11892
11818
11820
11811
11833
11877
11972
12055
12041
11985
11986
12052
12087
12112
12135
12099
12065
12039
11936
11922
11883
11878
11877
11876
11868
11903
11916
11888
11876
11882
11809
11812
11880
11894
11992
11998
11967
11947
11975
12059
12033
12081
12129
12173
12143
12047
12009
12005
12001
11996
11967
11968
12003
11987
11958
11873
11913
11970
11988
11954
11981
12006
11988
11937
11914
11914
11955
11948
11940
11994
11996
12045
12103
12048
12024
11971
11896
11788
11811
11839
11872
11871
11848
11842
11830
11876
11944
12004
12129
12120
12084
12029
11974
11945
11943
11919
11993
11973
12048
12087
12051
12049
12046
12121
12188
12204
12222
12200
12171
12143
11946
11880
11894
11925
11954
11961
11927
11885
11777
11635
11527
11554
11558
11621
11714
11838
12027
12076
12027
11989
12005
12060
12058
12103
12166
12192
12185
12088
12040
12068
12012
11956
12015
11966
11940
11837
11696
11609
11672
11758
11849
11946
12055
12124
12166
12166
12209
12214
12262
12301
12330
12322
12299
12247
11986
12023
12158
12219
12249
12098
12041
11927
11802
11651
11434
11425
11504
11552
11625
11544
11181
11279
11515
11760
11956
12171
12221
12222
12212
12213
12241
12147
12049
12014
11920
11859
11992
12048
12147
12221
12231
12226
12399
12470
12512
12466
12370
12246
12087
11909
11743
11676
11687
11527
11412
11332
11364
11474
11639
11528
11523
11581
11713
12030
12148
12205
12240
12218
12146
12130
12136
12154
12144
12170
12206
12198
12172
12148
12122
12138
12126
12096
12075
12104
12140
12195
12147
12102
12121
12170
12216
12180
12101
12016
11945
11879
11545
11388
11318
11366
11446
11579
11526
11478
11558
11670
11860
12105
12137
12176
12161
12182
12195
12149
12030
12051
12074
12013
12042
12074
12070
12106
12095
12034
12056
12028
12032
12018
12072
12090
12119
12116
12069
12036
12015
12008
12012
12008
12000
11848
11794
11718
11674
11716
11738
11917
11988
12012
12008
12035
11991
11993
12026
12099
12183
12340
12331
12334
12367
12347
12295
12137
12072
11951
11764
11581
11490
11513
11512
11452
11500
11536
11639
11738
11757
11793
11824
11941
11989
12057
12134
12163
12219
12214
12172
12148
12144
12111
12070
12043
12001
11972
11956
11963
11940
11936
11872
11845
11851
11942
11993
12053
12092
12123
12186
12172
12154
12171
12129
12019
12120
12196
12250
12243
12164
11816
11659
11559
11502
11526
11688
11659
11663
11714
11706
11750
11786
11816
11932
12043
12085
12125
12133
12138
12177
12211
12231
12344
12424
12428
12406
12331
12332
12310
12299
12213
12062
11815
11760
11672
11565
11461
11504
11704
11755
11747
11732
11687
11684
11714
11783
11855
11948
12035
12164
12177
12199
12245
12258
12137
12087
12083
12089
12125
12189
12178
12182
12156
12092
12052
12056
11967
11856
11833
11755
11688
11665
11571
11480
11551
11660
11566
11529
11516
11567
11607
11582
11716
11866
12020
12121
12214
12306
12336
12369
12362
12293
12274
12287
12196
12251
12347
12425
12399
12372
12329
12248
12250
12241
12220
12154
11993
11858
11458
11209
11069
11030
11033
11114
11401
11529
11677
11822
11879
11931
11926
11966
11974
11993
12027
12062
12110
12119
12172
12179
12195
12232
12295
12313
12278
12225
12267
12245
12220
12236
12209
12129
12133
12100
12032
12026
11921
11861
11758
11723
11764
11816
11885
11908
11850
11812
11835
12004
12049
12155
12209
12239
12176
12134
12121
12101
12165
12191
12061
12016
11999
11976
11971
11840
11815
11792
11721
11703
11738
11769
11679
11624
11644
11638
11713
11750
11810
11948
12102
12322
12346
12249
12157
12102
12089
12177
12159
12126
12022
11959
11826
11854
11898
11941
11979
11978
11902
11841
11709
11508
11431
11649
11726
11732
11778
11827
12044
12153
12206
12278
12340
12424
12454
12473
12514
12499
12457
12286
12203
12185
12086
11965
11878
11678
11660
11724
11835
11823
11516
11318
11198
11101
11122
11151
11182
11210
11221
11270
11420
11687
11905
12100
12253
12345
12494
12446
12476
12566
12584
12595
12619
12616
12603
12571
12490
12352
12305
12276
12277
12340
12375
12167
11986
11778
11526
11281
11017
10926
10927
11073
11306
11767
11831
11847
11895
11876
11932
12123
12160
12266
12321
12307
12196
12220
12228
12220
12267
12332
12325
12307
12352
12327
12322
12304
12293
12277
12242
12272
12331
12335
12222
12136
11982
11792
11463
11351
11246
11209
11237
11270
11416
11505
11602
11698
11828
12046
12075
12095
12108
12099
12141
12210
12314
12450
12577
12685
12752
12697
12693
12632
12515
12407
12399
12417
12356
12274
12010
11889
11681
11411
11140
10863
10605
10550
10522
10620
10644
10821
10987
11215
11419
11624
11839
12230
12317
12332
12363
12411
12453
12503
12495
12505
12529
12461
12389
12358
12363
12388
12365
12454
12465
12431
12377
12318
12386
12446
12416
12305
12126
11931
11642
11590
11526
11535
11593
11653
11694
11749
11785
11820
11867
11776
11791
11853
11915
11948
11960
11907
11968
11974
11996
11818
11730
11637
11580
11599
11693
11914
11996
12036
12032
12061
12092
12142
12245
12333
12396
12428
12385
12346
12327
12295
12264
12325
12366
12374
12359
12296
12006
11788
11546
11427
11423
11489
11546
11516
11496
11428
11461
11573
11654
11691
11794
11917
12013
12067
12128
12239
12415
12596
12807
12783
12630
12544
12422
12187
11871
11874
11905
11855
11780
11816
11904
11952
11953
11873
11596
11446
11311
11195
11124
11168
11267
11360
11567
11813
12050
12488
12726
12799
12781
12738
12725
12695
12568
12444
12250
12036
11789
11810
11913
11995
11963
11773
11576
11377
11256
11194
11283
11587
11649
11660
11670
11717
11791
11872
12029
12290
12515
12675
12800
12769
12739
12619
12444
11981
11959
11967
11911
11806
11915
12015
12043
12079
12174
12193
11805
11549
11303
11171
11080
10890
10897
11092
11347
11600
11867
12142
12114
12171
12272
12361
12437
12433
12408
12320
12210
12034
11941
11959
12013
12095
12129
12153
12124
12018
11943
11879
11993
11993
12056
12092
12088
12130
12202
12161
12053
11994
11985
12030
12091
12171
12225
12189
12100
11785
11622
11538
11577
11665
11857
11945
11955
11961
11930
11832
11849
11899
11932
11931
11959
12164
12225
12306
12357
12372
12312
12222
12089
11983
11878
11786
11594
11673
11708
11695
11718
11646
11646
11692
11711
11792
11932
12321
12543
12739
12812
12862
12810
12785
12655
12512
12373
11856
11568
11300
11058
10847
10752
10651
10707
10799
10888
10978
11249
11348
11517
11701
11934
12191
12720
12839
12919
13020
13031
13007
12999
12939
12860
12810
12728
12655
12604
12623
12622
12546
12093
11817
11504
11137
10790
10179
9953
9848
10037
10258
10425
10551
10741
11234
11563
11857
12136
12372
12692
12768
12815
12831
12818
12834
12845
12837
12811
12815
12778
12690
12726
12722
12668
12610
12566
12539
12464
12348
12270
12239
12054
11947
11880
11749
11636
11479
11358
11282
11229
11225
11176
11153
11062
10949
10860
10908
11226
11463
11689
11909
12038
12182
12312
12441
12483
12547
12587
12625
12646
12771
12921
13060
13110
13030
12929
12847
12781
12500
12308
12113
11892
11712
11580
11245
11153
11144
11276
11365
11458
11379
11298
11230
11150
11108
11069
11039
11019
11053
11097
11377
11553
11730
11981
12203
12393
12612
12668
12720
12749
12822
12932
12950
12942
12855
12780
12804
12711
12603
12473
12335
12225
11639
11222
10926
10846
10822
11002
11091
11151
11157
11345
11572
11707
11690
11633
11578
11592
11868
12071
12349
12604
12848
12922
12890
12814
12680
12469
12213
11911
11740
11532
11387
11332
11633
11784
11901
11906
11933
12039
12167
12172
12168
12114
12060
12148
12204
12306
12280
12140
11987
11810
11765
11742
11781
11844
12020
12075
12065
12044
12000
11705
