12075
12060
12082
12090
12122
12156
12192
12191
12136
12135
12155
12189
12204
12218
12202
12234
12244
12243
12206
12200
12218
12202
12176
12150
12159
12173
12181
12116
12065
12065
12104
12096
12165
12203
12216
12173
12152
12163
12171
12195
12214
12236
12215
12197
12203
12228
12214
12221
12187
12161
12105
12166
12172
12157
12114
12091
12089
12090
12056
12089
12110
12203
12173
12113
12157
12194
12217
12219
12284
12243
12231
12191
12227
12201
12212
12215
12202
12146
12178
12155
12136
12136
12052
12064
12039
12025
12113
12154
12189
12183
12141
12121
12167
12170
12178
12216
12231
12254
12250
12239
12233
12199
12202
12197
12145
12158
12187
12181
12170
12128
12049
12069
12074
12088
12145
12172
12192
12170
12141
12129
12179
12183
12206
12227
12227
12226
12234
12233
12198
12201
12201
12174
12146
12139
12171
12166
12137
12069
12054
12059
12050
12074
12171
12186
12218
12180
12155
12172
12168
12173
12225
12226
12248
12232
12201
12185
12177
12200
12166
12160
12133
12121
12124
12151
12088
12094
12099
12090
12123
12170
12185
12175
12149
12104
12149
12156
12162
12183
12207
12258
12220
12235
12191
12201
12180
12166
12154
12139
12171
12191
12204
12063
12073
12105
12109
12121
12186
12189
12189
12219
12179
12130
12188
12216
12208
12245
12224
12181
12165
12181
12206
12196
12195
12187
12174
12132
12147
12143
12078
12103
12101
12070
12092
12138
12191
12208
12214
12201
12159
12140
12144
12164
12176
12208
12226
12228
12247
12242
12218
12201
12194
12190
12184
12178
12176
12112
12066
12102
12064
12081
12112
12117
12158
12148
12188
12152
12149
12184
12204
12163
12233
12258
12255
12215
12213
12176
12169
12181
12138
12103
12146
12180
12134
12086
12103
12110
12093
12080
12140
12193
12195
12178
12159
12138
12167
12190
12205
12196
12209
12241
12236
12267
12213
12192
12217
12172
12158
12168
12145
12131
12091
12093
12098
12058
12076
12161
12181
12154
12154
12183
12181
12215
12220
12208
12198
12212
12236
12228
12225
12222
12210
12171
12146
12141
12135
12119
12165
12170
12071
12046
12044
12060
12140
12185
12188
12195
12223
12153
12149
12150
12185
12180
12227
12216
12232
12220
12203
12188
12182
12168
12159
12156
12131
12193
12191
12159
12091
12074
12125
12103
12148
12175
12178
12190
12131
12099
12114
12187
12215
12195
12226
12200
12218
12251
12235
12183
12177
12177
12167
12139
12174
12152
12139
12096
12063
12042
12040
12124
12170
12187
12188
12131
12106
12118
12175
12196
12163
12216
12231
12226
12239
12207
12216
12232
12228
12190
12152
12209
12195
12164
12106
12130
12139
12125
12132
12155
12185
12181
12168
12109
12114
12124
12133
12147
12188
12218
12248
12234
12230
12253
12273
12238
12225
12205
12141
12107
12126
12153
12065
12039
12030
12039
12075
12103
12088
12077
12082
12068
12119
12205
12221
12202
12203
12219
12244
12245
12241
12207
12215
12217
12203
12182
12202
12191
12184
12134
12107
12120
12156
12152
12181
12233
12224
12196
12151
12149
12171
12181
12191
12213
12214
12171
12207
12232
12191
12206
12188
12187
12154
12108
12141
12147
12112
12053
12133
12168
12129
12137
12197
12225
12155
12135
12121
12086
12087
12134
12191
12209
12204
12228
12200
12173
12189
12191
12169
12176
12208
12224
12238
12236
12173
12170
12174
12183
12194
12218
12207
12116
12100
12083
12059
12074
12033
11983
11987
12018
12066
12103
12125
12199
12251
12291
12284
12280
12319
12323
12267
12257
12192
12152
12114
12110
12152
12112
12141
12141
12082
12108
12137
12224
12200
12227
12252
12274
12251
12248
12253
12252
12248
12175
12099
12078
12059
12050
11974
11766
11739
11789
11886
11985
12106
12253
12292
12242
12211
12142
12188
12131
12204
12314
12328
12317
12353
12358
12282
12242
12248
12240
12223
12212
12257
12246
12194
12261
12298
12252
12197
12210
12281
12259
12170
12107
12062
12068
12076
12089
12134
12139
12111
12117
12127
12098
12180
12221
12161
12164
12188
12228
12224
12151
12209
12178
12136
12106
12118
12061
12071
12082
12032
11933
11810
11846
11970
12104
12140
12202
12249
12272
12267
12264
12299
12269
12222
12257
12262
12245
12227
12178
12153
12140
12125
12126
12067
11994
11990
11958
11922
11945
12038
12071
12078
12053
12037
12077
12107
12132
12181
12207
12241
12251
12284
12315
12356
12379
12383
12400
12411
12420
12435
12517
12541
12521
12509
12374
12172
12131
12117
12058
12053
11947
11606
11513
11482
11542
11670
11891
11889
11882
11874
11919
11990
12148
12235
12294
12247
12222
12292
12281
12281
12306
12370
12391
12433
12483
12487
12527
12528
12578
12609
12612
12612
12649
12443
12229
11998
11754
11551
11449
11500
11521
11648
11777
11915
12103
12158
12156
12200
12276
12282
12234
12275
12331
12333
12339
12353
12354
12305
12244
12201
12070
12085
12135
12158
12176
12180
12201
12184
12218
12190
12142
12209
12264
12268
12267
12283
12276
12218
12242
12280
12224
12183
12128
12033
11905
11916
11990
12142
12171
12130
12122
12122
12159
12111
12099
12100
12088
12050
12097
12133
12151
12198
12223
12236
12128
12096
12127
12210
12203
12280
12320
12334
12283
12251
12294
12291
12282
12254
12256
12259
12149
12156
12100
12050
12051
12120
12136
12192
12210
12235
12269
12269
12280
12313
12320
12311
12380
12419
12421
12388
12318
12152
11818
11762
11783
11853
11913
11816
11898
11973
12013
12025
12086
12124
12183
12212
12305
12317
12244
12214
12228
12275
12274
12415
12509
12501
12420
12352
12244
12105
12045
12018
11942
11913
11992
12023
12054
11993
12013
12095
12128
12161
12187
12200
12251
12210
12156
12175
12165
12178
12220
12299
12287
12294
12286
12300
12294
12285
12280
12265
12245
12306
12321
12310
12222
12143
12100
12128
12084
12080
12064
12050
11789
11685
11773
11872
11966
12204
12296
12323
12303
12327
12339
12262
12194
12129
12016
11947
12097
12206
12271
12267
12209
12237
12198
12183
12232
12352
12390
12405
12365
12367
12367
12363
12309
12318
12305
12186
12054
11941
11800
11828
11896
11917
11880
11836
11882
11930
11986
12004
12135
12390
12435
12454
12523
12554
12515
12471
12475
12446
12431
12440
12402
12401
12331
12316
12248
11819
11633
11546
11492
11466
11643
11786
11926
12032
12091
12034
11955
11939
11995
12129
12200
12301
12320
12364
12381
12391
12483
12468
12480
12477
12482
12478
12275
12190
12175
12121
12017
11762
11790
11839
11881
11943
11978
12077
12120
12176
12266
12331
12401
12441
12432
12395
12370
12386
12330
12221
12150
12195
12210
12165
12127
12110
12106
12070
12019
11938
11937
12038
12170
12217
12221
12277
12367
12332
12329
12277
12250
12175
12077
11991
11941
11941
11929
11954
11987
11960
11797
11793
11870
11996
12095
12213
12266
12248
12277
12305
12271
12099
12147
12221
12224
12222
12356
12380
12369
12374
12328
12276
12113
12058
12052
12126
12256
12466
12557
12568
12577
12559
12614
12558
12552
12608
12688
12653
12208
11967
11671
11434
11285
11225
11186
11293
11481
11612
11705
11919
12052
12118
12211
12252
12447
12616
12700
12769
12808
12812
12753
12642
12440
12211
11973
11773
11830
11872
11870
11877
12005
12362
12501
12542
12416
12207
11907
11865
11840
11885
11933
11989
11874
11810
11771
11712
11650
11664
11675
11665
11619
11656
11932
12077
12256
12324
12413
12496
12606
12619
12580
12547
12513
12542
12541
12537
12546
12574
12470
12416
12459
12486
12437
12395
12406
12341
12321
12365
12421
12353
12240
12187
12216
12129
12138
12195
12160
12074
11959
11912
11992
12054
12064
12022
11997
11920
11963
12053
12068
12051
12037
12016
11944
11910
11886
11884
11954
12004
12051
12098
12096
12157
12380
12511
12582
12595
12573
12383
12341
12342
12358
12410
12504
12591
12543
12400
12308
12190
11864
11680
11546
11470
11449
11416
11532
11600
11737
11843
11915
12054
12146
12311
12411
12552
12734
12738
12791
12807
12797
12852
12886
12896
12936
12958
12974
12793
12530
12134
11709
11357
11163
11113
11053
11015
11047
11072
11116
11288
11519
11757
11953
12030
12062
12219
12448
12644
12846
13023
13012
12965
12901
12810
12693
12651
12546
12482
12500
12498
12421
12348
12149
12017
11858
11505
11373
11328
11389
11595
11864
11879
11891
11962
11972
11926
11838
11816
11802
11822
11924
12085
12130
12166
12223
12306
12399
12514
12543
12501
12511
12477
12499
12493
12537
12612
12649
12640
12590
12584
12543
12510
12477
12523
12477
12299
12093
11980
11972
12041
12056
12011
11919
11857
11860
11867
11836
11779
11783
11750
11741
11785
11880
11912
11910
11987
12034
12092
12113
12109
12280
12309
12314
12372
12409
12377
12360
12370
12379
12379
12441
12552
12586
12576
12521
12526
12531
12517
12498
12540
12572
12580
12706
12663
12570
12468
12339
11910
11644
11399
11142
11002
11093
11156
11335
11516
11647
11861
12180
12265
12295
12182
12037
11868
11890
11929
12070
12152
12261
12234
12093
11968
11888
11792
11819
11961
12148
12336
12458
12580
12633
12693
12757
12809
12776
12813
12860
12838
12784
12672
12709
12674
12555
12418
12312
12133
11787
11623
11493
11404
11283
11222
11270
11321
11481
11596
11719
11844
11896
12028
12114
12216
12649
12870
12971
13027
13029
12880
12788
12709
12701
12731
12724
12728
12696
12586
12450
12296
11899
11702
11533
11352
11202
11123
11203
11223
11313
11369
11390
11479
11599
11768
11937
12069
12048
12135
12218
12329
12496
12654
12756
12763
12723
12706
12754
12760
12780
12831
12853
12840
12850
12762
12573
12435
12373
12284
11848
11688
11623
11587
11589
11614
11818
11834
11783
11737
11741
11785
11952
12081
12169
12300
12683
12843
12953
13069
13146
13184
12829
12532
12271
11979
11760
11671
11768
11868
11989
12058
11988
11650
11548
11476
11440
11529
11885
11961
11986
12071
12261
12526
12729
12611
12476
12254
11944
11613
11563
11545
11555
11537
11344
11245
11224
11244
11262
11276
11552
11852
12112
12324
12484
12776
12858
12883
12871
12862
12888
12843
12824
12791
12774
12685
12497
12359
12187
12120
12201
12375
12436
12515
12599
12588
12562
12587
12555
12526
12452
12469
12501
12468
12415
12393
12325
12220
11932
11764
11590
11502
11499
11583
11609
11683
11845
12118
12699
12821
12830
12780
12714
12595
12395
12313
12299
12278
12256
12254
12211
12145
12026
11940
11875
11674
11453
11183
10998
10932
10903
11047
11229
11443
11647
11900
12676
13005
13279
13442
13478
13360
13214
13114
12905
12603
12400
12325
12264
12210
12190
12078
11762
11617
11384
11030
10757
10375
10436
10723
11049
11402
11707
12244
12457
12759
13078
13430
13834
13705
13544
13371
13224
12995
12887
12790
12670
12501
12279
11789
11596
11366
11106
10891
10630
10598
10721
10929
11139
11333
11709
11800
11873
11980
12080
12334
12386
12396
12514
12567
12615
12961
13106
13235
13323
13403
13473
13439
13381
13316
13269
13020
12895
12792
12685
12597
12545
12312
12022
11693
11378
11095
10247
9867
9596
9485
9399
9483
9800
10384
10952
11440
11804
12296
12411
12574
12787
12968
13063
13167
13249
13330
13331
13350
13470
13505
13516
13422
13336
13118
13029
12905
12794
12679
12563
12285
12035
11796
11590
11355
11023
10982
11008
11109
11178
11281
11595
11648
11676
11699
11718
11638
11596
11660
11759
11919
12329
12551
12719
12761
12745
12776
12906
12960
12999
13033
13008
12897
12859
12756
12698
12696
12699
12758
12715
12679
12575
12454
12009
11726
11392
11005
10695
10623
10777
10872
11002
11096
11247
11716
11894
11877
11864
11751
11540
11546
11607
11827
12111
12259
12470
12640
12877
13003
13036
13203
13189
13100
12975
12818
12632
12464
12464
12542
12611
12676
12954
12980
13002
12979
12995
12774
12485
12149
11844
11566
11308
10861
10674
10548
10463
10424
10861
11131
11322
11441
11580
11823
12241
12496
12684
12736
12730
12792
12697
12642
12620
12632
12573
12567
12625
12602
12564
12581
12562
12521
12541
12522
12446
12153
11998
11890
11843
11860
11820
11889
12020
12076
12065
11971
11692
11503
11410
11446
11565
11811
12104
12210
12246
12276
12381
12475
12502
12600
12718
12918
13472
13638
13702
13675
13598
13487
13295
13369
13406
13402
13526
13752
13836
13813
13631
13342
12959
11913
11302
10743
10241
9760
9319
8823
8351
8002
7732
7527
7540
7735
8027
8358
8839
9535
10411
11178
11834
12394
12829
13525
13881
14197
14421
14572
14703
15020
14999
14898
14709
14458
14158
14020
13853
13631
13472
13264
12799
12616
12431
12278
12155
11834
11573
11355
11197
11040
10954
10989
11051
11100
11053
11031
11236
11443
11575
11696
11778
11969
12039
12185
12371
12525
12684
12932
13040
13112
13103
13092
13151
13126
13106
13047
13029
12989
12841
12803
12750
12588
12442
12284
12173
11987
11767
11676
11636
11673
11690
11646
11631
11586
11337
11194
11048
10925
10989
11257
11379
11508
11659
11801
11925
12149
12232
12387
12587
12768
12898
12940
12950
12922
12888
12568
12535
12520
12562
12664
12809
13021
12898
12778
12667
12649
12520
12377
12155
11888
11721
11729
12058
12332
12538
12690
12713
12107
11716
11433
11151
10931
10457
10324
10344
10391
10510
10691
10964
11294
11736
12092
12371
12904
13196
13418
13499
13451
13445
13382
13283
13146
13046
12830
12498
12375
12280
12146
12084
12048
11596
11345
11103
10844
10624
10620
10779
10947
11116
11441
12524
12857
13085
13335
13543
13666
13484
13283
13070
12812
12550
12283
12201
12137
12096
12047
11956
11668
11614
11640
11680
11676
11837
12131
12425
12596
12786
13091
13054
12992
12968
12898
12734
12505
12412
12279
12101
11876
11456
11398
11492
11680
11726
11416
11291
11267
11295
11244
11147
11037
11003
11140
11357
11698
11981
12408
12627
12745
12812
12861
12820
12807
12885
12922
12955
12869
12755
12711
12667
12633
12623
12621
12524
12549
12563
12529
12658
12751
12714
12583
12374
12137
11906
11907
11887
11791
11637
11475
11461
11512
11572
11602
11897
11956
12023
12181
12320
12380
12446
12437
12399
12337
12295
12473
12633
12672
12729
12776
12817
12695
12483
12331
12202
12094
11578
11225
10922
10754
10764
10810
10735
10749
10944
11313
11695
12319
12451
12582
12631
12617
12431
12258
12129
12015
11963
11970
12113
12286
12551
12820
13115
13366
13300
13153
12902
12704
12515
12041
11966
11986
12046
12115
12069
12053
12001
11981
12022
11975
11875
11788
11725
11605
11539
11601
11585
11614
11662
11752
11957
12129
12366
12533
12653
12608
12592
12590
12574
12583
12649
12477
12457
12631
12815
12880
12968
12980
12941
12874
12756
12652
12400
12181
12071
11947
11754
11379
11322
11349
11392
11422
11473
11640
11637
11621
11716
11777
11511
11484
11561
11614
11662
11675
11655
11681
11868
12092
12282
12467
12491
12565
12625
12637
12868
12936
12968
13011
12971
12884
12545
12479
12492
12576
12651
12531
12464
12390
12393
12397
12444
12417
12413
12455
12508
12455
12490
12442
12284
12078
11925
11658
11560
11554
11658
11711
11696
11527
11464
11323
11161
11084
11173
11223
11434
11818
12095
12257
12720
13025
13244
13389
13498
13895
13936
13843
13712
13488
13253
12482
11938
11485
11065
10810
10705
10765
10849
10916
10982
11064
11000
10979
10977
10911
10961
11283
11450
11617
11864
12160
12674
12807
12919
12955
12847
12662
12312
12152
12022
11918
11885
11878
11952
12181
12347
12539
12974
13171
13232
13253
13256
13196
13078
12908
12822
12814
12798
12688
12658
12616
12614
12607
12524
12419
12369
12280
12109
11888
11688
11625
11588
11573
11565
11559
11664
11716
11662
11555
11394
11334
11332
11448
11707
11963
12160
12136
12309
12636
12947
13125
13154
13026
12852
12690
12675
12540
12328
12075
11991
11885
11812
11792
11747
11611
11582
11716
12035
12069
12143
12178
12134
11946
12086
12339
12559
12676
12714
12563
12408
12233
12093
11890
11395
11303
11298
11370
11623
11959
12555
12707
12780
12711
12441
12103
12090
12062
12056
12107
12557
12739
12828
12858
12812
12716
12145
11850
11654
11562
11578
11694
11762
11679
11650
11765
11824
12041
12177
12252
12299
12369
12291
12134
11972
11976
12155
12346
12262
12181
12193
12275
12301
12277
12201
12008
11809
11683
11514
11502
11523
11491
11357
11314
11415
11556
11682
11828
12063
12571
12931
13360
13636
13682
13716
14052
14087
13915
13656
13439
13198
13152
13064
12842
12514
12118
11940
11716
11482
11462
11496
11332
11226
11251
11324
11356
11247
11191
11252
11340
11517
11800
12374
12429
12384
12242
11993
11473
11318
11231
11147
11114
11208
11351
11374
11389
11394
11393
11384
11319
11375
11547
11863
12610
12704
12697
12685
12725
12714
12919
13115
13239
13327
13359
13409
13396
13282
13258
13165
12955
12587
12529
12521
12506
12484
12513
12540
12550
12535
12472
12338
12338
12261
12105
11935
11846
11781
11744
11671
11732
11901
12157
12073
11956
11879
11865
11881
11902
12027
12188
12279
12380
12536
12584
12591
12625
12667
12627
12280
11963
11608
11355
11215
11118
11113
11181
11324
11414
11558
11580
11589
11633
11591
11473
11234
11143
11261
11620
11967
12710
13124
13722
14194
14478
14461
13651
13245
12935
12644
12448
11977
11761
11512
11327
11237
11061
11084
11228
11509
11779
11890
11776
12006
12326
12527
12624
12742
12557
12390
12332
12451
12635
12652
12613
12542
12483
12380
12013
11887
11848
11809
11664
11551
11601
11584
11598
11582
11720
11805
11784
11817
11878
11844
11720
11911
12223
12375
12510
12658
12896
12896
12819
12742
12674
12320
12131
11969
11835
11746
11758
12016
12183
12316
12393
12496
12743
12880
12965
12911
12732
12384
12335
12171
12054
12052
12085
12362
12439
12431
12339
12269
12314
12374
12399
12412
12455
12610
12825
12896
12879
12724
12564
12249
11944
11767
11712
11668
11527
11555
11643
11823
11982
12103
11964
11785
11457
11110
10962
10937
10962
11072
11345
11705
11929
11960
11943
11927
11825
11716
12062
12324
12633
12883
12929
12881
12601
12525
12458
12368
12188
12261
12292
12265
12233
12288
12335
12370
12455
12432
12287
12209
12390
12501
12560
12632
12746
12747
12660
12643
12609
12454
12264
12357
12523
12614
12775
12933
12993
12822
12631
12324
11970
11663
11640
11593
11585
11598
11436
10968
10769
10638
10639
10631
10692
10750
10870
11001
11168
11385
11791
11995
12172
12385
12614
12724
12807
12941
13003
12990
13000
12697
12362
12223
12302
12446
12586
12588
12537
12509
12418
12391
12391
12442
12476
12546
12629
12597
12528
12537
12508
12437
12445
12475
12482
12514
12520
12500
12436
12380
12291
12241
12121
11793
11794
11794
11798
11734
11835
11879
11944
12115
12335
12511
12549
12376
12220
12046
11864
11833
11831
11743
11658
11539
11428
11595
11823
12094
12342
12613
13172
13485
13771
14093
14227
13552
13049
12550
12109
11747
11419
10943
10629
10241
10002
9912
9902
9973
10174
10558
10824
11224
11644
12015
12475
12634
12869
13115
13171
13158
13297
13191
13114
13099
13166
13098
12994
12879
12715
12434
12149
11883
11801
11735
11745
11734
11749
11756
11829
11883
11936
12047
12094
12024
11902
11772
11778
12075
12270
12441
12686
12970
13153
13169
13124
13038
12908
12728
12425
12310
12175
12014
11776
11541
11547
11499
11338
11147
11033
11126
11355
11673
12088
12465
12850
12868
12809
12686
12606
12356
12173
12023
11975
12000
12016
12073
12114
12133
12123
12152
12318
12462
12647
12729
12693
12635
12507
12426
12286
12185
12124
12073
12000
11903
11809
11674
11596
11510
11552
11614
11606
11695
11964
12141
12336
12433
12546
12815
12991
13163
13294
13320
13214
12845
12632
12445
12230
11950
11279
10990
10814
10795
10847
11008
11210
11243
11287
11305
11303
11410
11564
11906
12418
12816
13538
13821
13919
13861
13717
13549
13526
13445
13264
13093
13020
12479
12176
11995
11789
11483
11293
11200
11135
11197
11237
11206
11008
10885
11012
11213
11213
11177
11287
11432
11582
11875
12221
12784
12958
13129
13190
13193
12954
12794
12676
12468
12331
12313
12209
12094
11982
12036
12137
12216
12104
12030
12009
11932
12026
12404
12562
12701
12810
12877
12997
13031
13085
13084
12889
12573
12549
12527
12404
12293
12358
12335
12257
12075
11805
11551
11101
10950
10781
10618
10546
10562
10790
11012
11257
11469
11680
12038
12151
12334
12481
12543
12625
12658
12589
12493
12481
12579
12757
12764
12720
12640
12568
12471
12529
12581
12573
12584
12671
12820
12872
12916
12960
12887
12630
12531
12399
12273
12200
12039
11552
11247
11097
11103
11099
11119
11325
11709
11886
11929
12156
12160
12140
12122
12231
12273
12386
12531
12602
12678
12678
12513
12426
12404
12392
12420
12299
12015
11879
11808
11726
11656
11760
11780
11754
11644
11518
11639
11686
11719
11677
11736
11925
12256
12374
12481
12571
12669
12679
12611
12606
12500
12233
11927
11584
11587
11775
12082
12403
12644
12555
12472
12372
12239
12165
11948
11905
11891
11956
12227
12578
12628
12637
12695
12657
12639
12716
12778
12847
12884
12890
12763
12656
12658
12632
12490
12211
12089
12040
11955
11904
11891
11636
11411
11265
11242
11325
11487
11815
12187
12337
12385
12337
12155
11932
11870
12015
12129
12152
12134
12062
11920
11799
11644
11539
11438
11361
11323
11331
11471
11696
11925
12123
12309
12889
13122
13257
13352
13445
13374
13305
13164
13051
12922
12792
12611
12445
12302
12064
11896
11789
11709
11599
11429
11181
10935
10945
11173
11377
11606
11795
11909
11963
12057
12089
12073
12037
12165
12226
12218
12310
12430
12649
12652
12750
12939
13020
12890
12872
12848
12772
12722
12686
12482
12328
12186
12050
11885
11679
11755
11817
11839
11895
11918
11815
11778
11891
12101
12332
12490
12377
12353
12261
12065
11869
11695
11556
11545
11624
11735
11991
12046
12086
12138
12222
12331
12415
12439
12463
12580
12643
12545
12470
12351
12309
12327
12466
12454
12380
12238
12106
12010
11744
11695
11760
11862
11933
11840
11795
11765
11698
11698
11640
11625
11761
11978
12117
12222
12450
12481
12484
12471
12568
12765
12720
12660
12630
12672
12634
12624
12629
12516
12317
12200
12181
12198
12164
12072
11988
11581
11410
11332
11348
11380
11441
11725
11837
11907
11897
11990
12282
12348
12369
12422
12430
12487
12646
12672
12720
12683
12594
12325
12142
12108
12183
12233
12276
12128
12098
12029
11933
11920
12150
12135
12067
11958
11913
11965
12058
12210
12326
12440
12500
12560
12490
12388
12417
12526
12558
12439
12359
12338
12247
12186
12103
12112
12058
11914
11795
11806
11841
11944
12025
12037
11979
11871
11755
11632
11600
11718
11907
11916
11927
11931
11898
11804
11861
11955
12115
12319
12476
12546
12487
12637
12765
12718
12643
12551
12448
12360
12345
12542
12817
13180
13344
13339
13221
12845
12672
12400
12109
11902
11824
11753
11625
11525
11436
11331
10906
10505
10145
9840
9629
9648
10045
10572
11520
12003
12320
12515
12731
13179
13252
13287
13312
13234
13135
13033
13038
12958
12836
12689
12534
12557
12580
12552
12507
12494
12479
12439
12351
12158
11965
11710
11699
11827
11962
12082
12249
12170
12017
11951
11938
11968
12031
12037
12069
12071
11991
12007
12094
12183
12228
12262
12336
12454
12499
12565
12640
12664
12479
12392
12340
12275
12276
12264
12184
12041
12048
12094
12126
12090
12027
11979
11871
11803
11885
11911
11935
11965
12091
12206
12235
12200
12112
12056
11999
12120
12081
12044
12080
12105
12108
11953
11887
12001
12172
12346
12650
12641
12517
12403
12374
12439
12524
12576
12593
12449
12224
11800
11842
11940
12054
12088
12050
12143
12178
12187
12023
11892
12111
12195
12205
12218
12152
11868
11730
11731
11733
11545
11245
11328
11467
11557
11712
11975
12059
11972
12039
12139
12158
12340
12413
12416
12434
12459
12482
12662
12725
12802
12814
12763
12625
12613
12637
12673
12658
12678
12574
12517
12446
12391
12292
11783
11554
11412
11320
11273
11426
11611
11727
11872
12012
12128
12287
12341
12360
12392
12414
12567
12611
12564
12530
12533
12508
12342
12317
12312
12285
12250
12225
12148
12129
12159
12215
12056
11906
11832
11883
11903
11900
12088
12264
12362
12422
12542
12521
12436
12412
12323
12186
12046
11898
11825
11739
11724
11772
11668
11610
11602
11685
11729
11697
12023
12237
12364
12455
12462
12285
12199
12151
12093
12107
12197
12301
12432
12508
12575
12631
12534
12425
12315
12235
12226
12310
12317
12228
12180
12183
12152
11943
11862
11818
11841
11895
11948
11995
12003
12005
12003
12005
11976
11992
12128
12306
12453
12510
12526
12499
12434
12371
12378
12303
12145
12131
12118
11997
11910
12049
12166
12172
12181
12167
12182
12243
12309
12358
12369
12329
12384
12344
12292
12227
12222
12221
12207
12252
12335
12222
12129
12077
12042
12073
12022
12025
12038
12087
12074
12072
11916
11711
11607
11634
11704
11772
12007
12145
12260
12357
12485
12552
12612
12577
12568
12515
12463
12453
12371
12303
12267
12289
12268
12131
11970
11820
11613
11373
11359
11401
11572
11800
11991
12288
12384
12467
12504
12508
12376
12386
12364
12322
12320
12354
12306
12210
12096
12014
12019
12061
12098
12206
12225
12199
12256
12228
12206
12196
12169
12105
12131
12195
12226
12211
12250
12309
12298
12273
12311
12285
12220
12132
12104
12021
11896
11807
11992
12065
12130
12257
12326
12288
12257
12273
12284
12319
12353
12338
12344
12315
12207
12103
11962
11917
11963
12054
12094
12066
11976
11808
11763
11869
12004
12182
12176
12110
12170
12241
12284
12306
12271
12295
12361
12370
12397
12408
12416
12398
12361
12249
12206
12172
12174
12139
12120
12258
12333
12308
12241
12119
12093
12105
12075
12067
12005
11934
11751
11542
11324
11169
11240
11667
11926
12147
12336
12481
12569
12595
12615
12660
12631
12528
12368
12306
12269
12240
12183
12125
12109
12171
12160
12183
12219
12176
12181
12207
12265
12289
12236
12274
12342
12313
12255
12189
12137
12103
12097
12223
12313
12423
12441
12430
12380
12385
12513
12500
12349
12231
11997
11682
11246
11221
11308
11484
11692
12060
12105
12172
12268
12313
12372
12441
12529
12592
12611
12634
12570
12582
12506
12381
12264
11979
11751
11510
11395
11408
11484
11521
11577
11652
11737
11902
12279
12358
12345
12392
12420
12433
12449
12486
12499
12455
12407
12386
12399
12344
12255
12242
12140
12125
12158
12175
12180
12182
12279
12273
12225
12173
12210
12281
12268
12234
12194
12157
12161
12156
12181
12142
12122
12175
12310
12337
12353
12392
12401
12264
12191
12282
12329
12313
12301
12287
12187
12100
11936
11833
11968
12128
12209
12238
12304
12348
12312
12199
12139
12139
12234
12275
12193
12109
12050
11927
11781
11417
11314
11196
11105
11070
11312
11518
11790
12051
12302
12819
12952
12918
12709
12567
12427
12176
12081
12100
12161
12202
12342
12380
12292
12186
12104
12139
12120
12043
12017
12036
11999
12096
12186
12258
12283
12311
12402
12451
12487
12478
12460
12448
12475
12500
12550
12511
12448
12481
12433
12324
12282
12286
12261
12168
12080
12023
11949
11889
11836
11777
11712
11699
11748
11758
11851
11945
12027
12082
12160
12344
12378
12346
12384
12435
12410
12377
12337
12333
12346
12321
12331
12174
12071
12012
12036
12116
12113
12174
12169
12156
12089
11903
11759
11649
11688
11847
12038
12060
12168
12285
12337
12352
12399
12388
12337
12366
12460
12559
12400
12218
12172
12166
12295
12347
12300
12139
11972
11917
11909
11798
11683
11597
11515
11709
11915
12065
12154
12130
11928
11813
11819
11882
11979
12102
12349
12455
12476
12431
12332
12278
12304
12359
12366
12385
12394
12306
12368
12395
12359
12356
12471
12524
12515
12469
12470
12412
12228
12058
11908
11802
11699
11858
11962
12005
12027
12133
12194
12197
12393
12584
12652
12641
12526
12455
12384
12313
12313
12266
12223
12171
12209
12259
12262
12232
12065
11781
11447
11191
10926
10905
11037
11205
11442
11915
12106
12283
12453
12563
12716
12831
12862
12948
13051
13080
12853
12732
12575
12504
12492
12510
12375
12217
12164
12104
12084
12028
12005
11924
11762
11642
11532
11345
11290
11216
11073
10964
11102
11372
11703
11983
12191
12481
12565
12539
12572
12727
12908
13062
13030
12997
12949
12830
12716
12716
12646
12541
12442
12464
12465
12407
12369
12297
12009
11259
11001
10928
10972
11101
11302
11493
11746
11975
12170
12255
12461
12533
12580
12570
12535
12511
12521
12419
12282
12126
12053
12051
12036
12151
12250
12360
12441
12345
12307
12367
12333
12251
12104
12143
12191
12215
12239
12335
12327
12233
12175
12158
12189
12229
12280
12293
12269
12203
12335
12319
12263
12321
12440
12382
12290
12217
12177
12122
12114
12142
12147
12051
11932
11919
11787
11747
11785
11859
11933
11953
12023
12106
12188
12246
12287
12588
12623
12617
12569
12502
12401
12339
12223
12155
12112
12093
12017
12102
12277
12410
12416
11960
11602
11288
11117
11147
11392
11638
11883
12133
12308
12397
12505
12519
12581
12601
12650
12682
12601
12465
12294
12090
12011
11814
11637
11563
11490
11501
11789
11924
12029
12140
12289
12410
12514
12542
12572
12600
12573
12471
12370
12250
12169
12135
12176
12155
12147
12151
12216
12263
12337
12286
12243
12207
12101
11914
11849
11846
11891
11937
12006
12232
12450
12612
12653
12654
12618
12598
12529
12507
12472
12605
12636
12640
12600
12528
12526
12282
12073
11797
11549
11402
11058
10942
10829
10822
10873
10947
11159
11332
11499
11536
11513
11558
11733
11923
12065
12259
12509
12864
12934
12961
12933
12912
12903
12930
12944
12986
13000
12990
12907
12734
12685
12660
12615
12416
12339
12334
12307
12296
12405
12373
12271
12100
11962
11746
11342
11345
11454
11497
11497
11733
11878
11973
12107
12309
12511
12490
12449
12474
12495
12482
12401
12341
12316
12257
12221
12028
11919
12015
12096
12157
12207
12417
12444
12369
12297
12286
12178
12089
11942
11774
11698
11613
11537
11553
11620
11682
11665
11685
11714
11919
12197
12356
12452
12517
12621
12679
12606
12491
12361
12178
12069
12104
12190
12247
12282
12298
12244
12214
12228
12282
12235
12188
12158
12270
12308
12253
12252
12274
12315
12416
12400
12259
12172
12160
12190
12170
12156
12146
12074
11956
11624
11447
11268
11155
11189
11354
11545
11696
11897
12092
12171
12387
12497
12572
12639
12726
12882
12901
12887
12920
12903
12859
12800
12776
12676
12556
12476
12103
12060
12158
12336
12517
12566
12491
12362
12149
12019
11972
11860
11816
11741
11710
11690
11642
11546
11579
11607
11608
11689
11933
12055
12052
12006
12049
12161
12215
12345
12416
12422
12401
12605
12866
13144
13362
13451
13483
13139
12734
12267
11754
11280
10917
11128
11328
11501
11707
11856
11967
12052
12053
11850
11558
11438
11138
10761
10518
10367
10369
10525
10832
11182
11511
12126
12303
12414
12559
12785
12999
13501
13664
13768
13863
13951
13883
13795
13697
13487
13310
13210
12914
12836
12877
13006
13042
12720
12395
12018
11547
11012
10141
9870
9744
9776
9936
10212
10616
11088
11496
11978
12116
12290
12411
12525
12578
12714
12811
12832
12832
12846
12798
12826
12838
12836
12775
12671
12670
12671
12617
12611
12599
12803
12835
12851
12871
12839
12711
12457
12422
12313
12211
12087
12024
12063
12047
11884
11611
11137
11089
11116
11133
11137
11097
11246
11304
11388
11500
11542
11562
11585
11663
11730
11846
12168
12996
13459
13923
14129
14079
13805
13626
13412
13145
12883
12567
12467
12353
12273
12225
12142
11751
11415
10983
10495
9951
9522
9244
9065
9086
9330
9886
10638
12194
12774
13250
13629
13964
14426
14673
14784
14813
14894
15035
14973
14663
14368
14098
13711
12507
11773
11112
10598
10192
9824
9745
9664
9504
9284
9088
8791
8458
8143
7982
8092
8474
9247
10118
11132
12094
12828
13382
14223
14421
14543
14509
14371
14034
13903
13742
13594
13538
13414
13282
13120
13052
12987
12816
12377
12254
12100
11959
11865
11734
11746
11853
12053
12184
12242
12262
12283
12327
12294
12210
12286
12392
12494
12593
12679
12726
12707
12683
12574
12447
12305
12107
12015
11846
11679
11675
11455
11359
11421
11491
11473
11407
11556
11744
11949
12152
12371
12727
12837
12851
12867
12887
12952
12820
12720
12525
12261
12029
11541
11376
11303
11324
11439
11733
11841
11965
12109
12203
12211
12150
12089
12025
12058
12124
12530
12754
12923
13156
13463
13513
13056
12822
12619
12385
12134
11624
11465
11374
11340
11347
11457
11661
11649
11569
11416
11158
10491
10246
10241
10335
10534
11203
11737
12194
12547
12854
13103
13508
13666
13850
13992
14020
13951
13891
13892
13857
13711
13540
13038
12758
12600
12475
12398
12103
11734
11150
10555
10096
9603
9611
9731
9990
10386
10778
11100
11398
11708
11950
12168
12344
12702
13052
13161
13180
13212
13264
13246
13048
12679
12653
12670
12787
12823
12748
12607
12591
12499
12275
12078
12015
12119
12162
12140
12027
11999
11952
12010
12052
12099
12212
12115
11869
11679
11590
11638
11951
12145
12270
12359
12351
12154
11784
11634
11444
11307
11241
11282
11316
11421
11620
11829
12052
12453
12605
12686
12731
12740
12687
12667
12677
12711
12693
12769
12816
12955
13111
13137
13048
12597
12437
12312
12211
12106
11923
11795
11713
11604
11493
11498
11615
11766
11966
12118
12170
12238
12372
12402
12401
12475
12616
13110
13466
13808
13979
14043
13882
13671
13364
12978
12546
11852
11524
11182
10948
10811
10781
10696
10508
10330
10089
9849
9583
9348
9166
8955
8816
9001
9416
9968
11312
12038
12613
13025
13335
13551
13816
13874
13919
13921
13987
13854
13872
13903
13847
13681
13520
13331
13230
13142
13014
12897
12743
12753
13028
13289
13242
13021
12482
12202
11907
11654
11350
10758
10484
10292
10152
10170
10108
10162
10391
10741
11376
12021
12733
12876
12904
12948
12959
12863
12803
12842
12942
13037
13101
13318
13437
13485
13414
13199
12447
11992
11622
11387
11263
11336
11449
11612
11708
11628
11514
11420
11240
11104
11002
10865
10697
10732
10920
11296
11655
12007
12618
12852
12984
13058
13114
13131
13255
13430
13468
13424
13453
13398
13341
13250
13098
12911
12512
12148
11793
11495
11345
11472
11563
11522
11535
11605
11681
11991
12071
12040
11916
11794
11586
11492
11469
11524
11575
11739
12286
12550
12715
12802
12843
12970
13023
13029
12963
12793
12406
12336
12272
12173
12170
12226
12262
12210
12153
12122
12200
12426
12423
12360
12318
12182
12006
11781
11688
11656
11679
11617
11339
11158
11041
11075
11229
11405
11365
11421
11532
11741
12024
12543
12806
13006
13189
13324
13530
13511
13506
13463
13349
13192
12814
12449
11982
11547
11131
10490
10514
10723
11037
11322
11545
11679
11634
11527
11468
11514
11888
12069
12286
12516
12696
12910
12873
12881
12834
12714
12618
12647
12765
12941
13072
13231
13253
13110
12881
12584
12258
12006
11768
11667
11600
11553
11755
12121
12155
12212
12090
11822
11165
10788
10445
10196
10066
10120
10719
11171
11627
12116
12501
13051
13300
13516
13727
13752
13640
13396
13173
12944
12751
12592
12605
12688
12769
12809
12788
12705
12379
12244
12005
11856
11810
11731
11745
11720
11780
11773
11807
11894
11932
11960
12038
12054
12091
12039
12003
12036
12018
12103
12144
12216
12192
12207
12300
12085
11756
11479
11370
11429
11742
11986
12189
12403
12637
12985
13177
13267
13309
13240
13099
12877
12794
12769
12805
12725
12572
12371
12015
11671
11235
10806
10166
10053
10051
10258
10591
11123
11353
11624
11865
12110
12251
12115
12039
12069
12188
12421
13025
13337
13582
13753
13845
13569
13323
13158
13046
12962
12854
12625
12644
12730
12799
12831
12785
12647
12502
12241
11887
11374
10285
9949
9816
9846
9939
10201
10553
11072
11582
12132
12371
12577
12820
12956
13105
13092
13038
13033
13036
12929
12865
12770
12475
12092
11843
11794
11825
11736
11590
11463
11827
11962
11970
11876
11753
11694
11512
11472
11422
11442
11578
11910
12135
12220
12113
12026
12017
12151
12438
12756
13015
13268
13516
13601
13597
13500
13360
12939
12833
12710
12471
12262
12117
11959
11830
11729
11751
11773
11693
11612
11510
11357
11250
11247
11334
11508
11767
12054
12331
12686
12746
12891
13070
13162
13022
12909
12863
12839
12754
12555
11949
11745
11572
11428
11338
11236
11284
11399
11540
11617
11652
11778
11937
12196
12392
12498
12634
12642
12503
12336
12190
12102
12225
12342
12432
12513
12486
12518
12629
12735
12734
12821
12861
12670
12448
12172
11776
11210
10363
10305
10480
10763
11048
11519
11760
12009
12295
12500
12618
12528
12490
12568
12629
12662
12757
12828
12864
12886
12888
12634
12453
12379
12419
12352
12209
12062
12066
12096
12199
12334
12193
12077
11901
11757
11726
11838
12289
12424
12496
12539
12592
12667
12805
12992
13150
13144
13089
12770
12535
12307
12080
11828
11142
10716
10361
10101
10026
10256
10432
10628
10922
11202
11355
11539
11629
11764
11886
12103
12413
12581
12814
13089
13314
13351
13342
13321
13267
13321
13356
13206
13079
12801
12517
12404
12410
12345
12258
12196
12111
11984
12168
12137
12050
11943
11909
11882
11814
11788
11813
11906
11964
12030
12012
12043
12020
12050
12277
12474
12745
12895
12970
13190
13227
13216
13158
13113
13198
13547
13647
13589
13353
13036
12338
11967
11533
11114
10769
10503
10220
10141
9968
9798
9739
9767
9925
10099
10192
10243
10462
10629
10795
11042
11305
11856
12200
12530
12689
12791
12935
13478
13574
13521
13511
13582
13606
13484
13436
13275
13108
13007
13048
13137
13222
13306
13283
13067
13026
13023
12967
12829
11991
11713
11548
11504
11546
11609
11606
11504
11459
11526
11757
12026
11967
11848
11799
11671
11636
11656
11582
11459
11385
11405
11286
11199
11096
11051
11130
11421
11687
12041
12444
12826
13246
13974
14084
14112
14090
13969
13478
13111
12714
12402
12165
11973
12142
12272
12377
12404
12365
12110
11999
11894
11754
11582
11437
11369
11319
11351
11514
11845
12691
13001
13097
12960
12848
12711
12632
12404
12096
11773
11439
11111
11200
11352
11587
11846
11751
11457
11047
10664
10277
9807
9879
10143
10584
11120
11730
12294
12920
13782
13736
13538
13497
13526
13280
13061
12984
13036
13190
13276
13423
13464
13504
13517
13409
12911
12686
12580
12402
12220
11924
11873
11733
11608
11466
11305
11055
10998
10996
10972
10922
10806
10560
10418
10414
10458
10565
10849
11023
11332
11728
12182
12789
12949
12975
12899
12892
13480
13895
14315
14724
15019
15082
14644
14299
13962
13682
13357
12689
12384
12065
11892
11757
11723
11915
11967
11796
11327
10637
9395
9025
8917
8963
9106
9487
9966
10395
10895
11530
12100
12537
13195
13482
13522
13447
13354
13080
12945
12861
12953
13137
13264
13234
13128
12946
12744
12528
11943
11664
11494
11494
11605
11711
11606
11519
11593
11649
11604
11239
10970
10730
10637
10817
11635
11980
12225
12541
12868
13166
13561
13681
13782
13677
13552
13312
13273
13277
13317
13368
13280
12925
12801
12743
12772
12734
12465
12252
12009
11769
11606
11138
10870
10694
10735
11006
11234
11805
12028
12092
12010
11893
11584
11411
11408
11659
12006
12212
12460
12560
12546
12487
12433
12570
12792
12842
12707
12621
12607
12204
12009
11851
11661
11393
10965
10765
10723
10764
10891
11455
11773
12093
12529
12965
13265
13457
13417
13389
13308
13030
12335
12047
11850
11726
11615
11479
11432
11477
11554
11437
11263
11379
11507
11697
12001
12381
12906
12899
12926
13023
12986
12869
12682
12597
12413
12183
12045
11775
11688
11699
11818
11907
11944
12115
12340
12546
12618
12650
12805
12964
13261
13422
13425
13370
13213
12974
12727
12504
12247
11817
11552
11260
11060
10961
11029
10980
10933
10717
10501
10263
10141
10291
10555
10909
11246
12092
12447
12820
13203
13482
13678
13712
13578
13400
13256
13118
12823
12782
12680
12665
12667
12667
12710
12812
12891
12910
12936
13115
13264
13340
13291
13140
12861
12622
12260
11980
11720
11402
10775
10641
10641
10782
10930
11181
11292
11352
11220
11033
10661
10581
10667
10910
11286
11843
13187
13861
14364
14694
14810
14266
13731
13111
12436
11764
11215
10501
10472
10532
10699
10853
10909
10845
10773
10578
10407
10502
10950
11272
11674
12141
12573
13440
13826
14166
14318
14201
13727
13571
13434
13372
13334
13264
13011
12786
12524
12225
11961
11560
11366
11235
11242
11346
11533
12035
12157
12193
12111
11969
11829
11890
11998
12092
12173
12282
12406
12523
12588
12655
12761
12695
12558
12383
12147
11984
11821
11733
11682
11750
11844
11966
12152
12220
12250
12248
12260
12185
12182
12266
12318
12313
12258
11936
11796
11634
11608
11690
11917
12080
12242
12289
12315
12598
12719
12778
12840
12788
12708
12515
12380
12319
12282
12323
12538
12613
12614
12571
12481
12329
12008
11843
11546
11255
11136
11482
11651
11776
11879
11949
12050
12178
12224
12258
12276
12111
11695
11659
11730
11808
11875
12035
11978
11961
12123
12330
12453
12429
12542
12587
12484
12188
11512
11224
10877
10541
10419
10493
10992
11320
11646
12054
12364
12734
12962
13078
13087
13036
13007
13060
13123
13171
13253
13338
13293
13202
13109
12972
12907
12797
12717
12611
12456
12230
11931
11386
11244
11158
11124
11171
11420
11568
11747
11873
12159
12666
12794
12934
13003
13027
13013
12764
12606
12446
12284
12158
11811
11651
11552
11570
11635
11566
11343
11260
11183
11182
11345
11851
12048
12233
12519
12920
13446
13385
13249
13089
12866
12632
12437
12420
12413
12401
12347
12204
12134
12028
11813
11570
11384
11081
10997
10898
10927
11137
11781
12176
12421
12546
12578
12590
12536
12448
12357
12309
12293
12568
12667
12669
12694
12576
12068
11917
11858
11894
11979
12135
12382
12332
12237
12233
12288
12320
12191
12033
11874
11617
11344
11236
11461
11735
11952
12043
12042
12155
12265
12421
12494
12523
12593
12730
12892
13025
13154
13284
13294
13362
13433
13431
13214
12976
12801
12575
12338
12231
12234
12120
11887
11552
11206
10390
9999
9782
9655
9538
9455
9622
10122
10874
11488
11873
12225
12164
12201
12278
12380
12573
12759
12937
13100
13154
13188
13242
13280
13375
13537
13688
13612
13327
12965
12639
12353
12128
11778
11602
11402
11270
11244
11001
10707
10477
10423
10536
10700
11250
11595
11898
12219
12466
12826
12957
13124
13274
13363
13281
13181
13157
13179
13111
12958
12739
12659
12516
12428
12425
12345
12219
12024
11843
11705
11663
11803
11911
12045
12369
12631
12620
12406
12231
12258
12325
12202
12136
12103
12084
11962
11778
11734
11667
11578
11565
11519
11164
11045
10948
10804
10648
10726
11346
11738
12083
12407
12710
13167
13385
13573
13654
13611
13384
13309
13236
13152
13051
12936
12717
12516
12262
11984
11745
11280
11174
11060
10976
10973
10998
11044
11033
11064
11099
11249
11624
11835
12145
12490
12756
12873
12872
12860
12826
12808
12817
12884
12888
12898
12986
13146
13108
12968
12744
12396
12016
11738
11561
11615
11770
11933
12120
12275
12323
12348
12326
12263
12112
11902
11894
11884
11806
11727
11707
11753
11831
11930
12021
12087
12039
12036
12009
11903
11877
11852
11846
12082
12487
12855
12973
12842
12726
12631
12572
12593
12662
12621
12545
12572
12680
12695
12581
12470
12372
12204
12073
11832
11676
11530
11260
10869
10225
10066
10114
10341
10521
10994
11020
10922
10966
11150
11555
12571
12911
13163
13323
13404
13592
13599
13520
13400
13241
13142
12968
12848
12768
12682
12606
12569
12504
12412
12407
12463
12482
12535
12538
12352
12080
11865
11602
11631
11804
11991
12124
12119
12075
12044
11986
11849
11763
11861
11897
11896
11911
11910
12195
12325
12386
12444
12605
12759
12991
12895
12725
12603
12509
12481
12509
12483
12385
12349
12158
11959
11784
11705
11535
11307
11182
11061
10895
10620
10338
10035
10189
10605
11145
11697
12157
12632
12850
13058
13199
13294
13403
13390
13323
13273
13239
13043
12912
12874
12819
12723
12594
12492
12416
12299
12205
12112
11760
11596
11567
11600
11651
11711
11817
11790
11770
11753
11859
12154
12281
12414
12581
12688
12582
12436
12225
12134
12055
12000
11879
11882
11972
12163
12386
12509
12568
12619
12488
12252
12014
11455
11226
11202
11423
11763
12170
12239
12308
12429
12502
12541
12681
12701
12643
12563
12522
12561
12578
12611
12580
12418
11931
11804
11871
12064
12176
12159
12010
11816
11486
11218
11076
11077
11370
11849
12213
12438
12520
12249
11949
11545
11252
11068
11089
11385
11785
12073
12229
12428
12467
12572
12585
12485
12379
12407
12470
12508
12529
12566
12530
12553
12614
12616
12669
12748
12873
12863
12787
12764
12787
12574
12497
12536
12589
12673
12737
12539
12318
12204
12073
11862
11573
11504
11513
11588
11681
11823
11950
11922
11753
11609
11589
11551
11551
11632
11689
11768
12138
12342
12479
12534
12553
12508
12524
12502
12525
12540
12487
12268
12165
12120
12190
12359
12582
12475
12279
12126
11948
11806
11631
11688
11845
11958
11999
12097
12062
11877
11701
11540
11421
11550
11689
11861
11998
12120
12619
12854
12964
13064
13101
13059
12681
12478
12382
12282
12155
11961
11874
11844
11789
11752
12092
12036
11942
11781
11620
11496
11622
11762
12012
12234
12425
12825
13016
13031
12928
12864
12812
12520
12432
12452
12411
12337
12271
12320
12334
12296
12163
11898
11710
11655
11708
11814
11917
12024
12143
12277
12367
12452
12884
13090
13206
13090
12804
12499
12064
11903
11812
11785
11887
12161
12137
11937
11729
11553
11420
11240
11127
10957
10793
10623
10601
10789
11022
11357
11759
12493
12662
12755
12863
12944
12891
12699
12607
12502
12507
12679
12817
12769
12779
12853
12915
12864
12636
12433
12236
12093
12078
12093
12017
11931
11863
11817
11756
11787
11935
12031
12084
12193
12518
12553
12566
12591
12630
12605
12621
12705
12714
12646
12519
12151
12007
11869
11641
11356
10928
10923
11025
11096
11184
11469
11655
11863
12056
12214
12466
12972
13125
13252
13274
13203
13096
13027
12909
12716
12576
12529
12352
12304
12291
12322
12327
11980
11612
11252
10993
11015
11199
11563
11582
11609
11662
11783
12060
12138
12249
12272
12312
12405
12380
12343
12290
12215
12135
11945
11987
12157
12309
12419
12583
12568
12522
12504
12494
12595
12868
12868
12862
12842
12779
12750
12527
12332
12173
12078
12124
12140
12144
12205
12173
11991
11166
10683
10282
10040
10097
10512
10657
10937
11289
11583
11831
12315
12583
12830
13036
13131
13194
13076
12945
12854
12872
12996
13035
12976
12885
12788
12691
12505
12379
12361
12315
12326
12351
12371
12347
12262
12142
12066
12053
12027
12052
12096
12161
12029
11909
11861
11773
11583
11470
11598
11670
11730
11809
11764
11549
11490
11630
11942
12146
12478
12609
12711
12725
12707
12592
12358
12351
12358
12308
12266
12063
12027
12040
12026
11959
11910
11813
11833
11897
11995
12070
12139
12116
12114
12139
12232
12410
12701
12732
12761
12758
12705
12686
12689
12613
12489
12401
12329
12256
12179
12173
12149
12131
11980
11935
11993
12016
11981
11905
11744
11605
11671
11842
11949
12085
12031
11955
11914
11820
11714
11857
12008
12095
12132
12179
12082
12050
12170
12302
12379
12723
12782
12755
12685
12624
12496
12369
12231
12177
12184
12226
12148
12026
11860
11690
11646
11649
11585
11553
11597
11649
11862
12004
12146
12238
12266
12219
12262
12337
12373
12415
12482
12577
12580
12547
12540
12534
12567
12668
12601
12445
12315
12286
12284
12288
12306
12207
11952
11638
11263
11324
11539
11812
12102
12325
12310
12226
12149
12147
12007
11934
11884
11826
11820
11822
11804
11973
12290
12572
12781
12851
12805
12765
12686
12551
12355
12229
12233
12276
12343
12366
12191
12038
11913
11753
11648
11629
11675
11698
11708
11683
11744
12084
12360
12656
12767
12717
12658
12635
12571
12481
12377
12273
12181
12171
12205
12130
12067
11721
11588
11464
11299
11243
11348
11650
11821
11966
11983
12089
12200
12257
12284
12355
12412
12512
12505
12477
12483
12505
12490
12417
12445
12457
12400
12363
12400
12384
12354
12385
12417
12378
12314
12362
12410
12364
12281
12217
12181
12136
12149
12156
12050
11974
11875
11846
11821
11764
11606
11673
11763
11953
12212
12460
12442
12466
12492
12472
12452
12492
12504
12481
12424
12359
12422
12282
12137
12070
11979
11817
11748
11735
11792
11888
11971
12077
12055
11940
11869
11830
11891
11901
11900
11814
11698
11692
11899
11984
12144
12337
12480
12724
12927
13076
13078
12925
12712
12164
11926
11775
11635
11569
11740
11837
11903
11948
12016
12045
11989
11846
11703
11688
11760
11998
12074
12142
12202
12281
12489
12552
12584
12614
12647
12692
12729
12733
12687
12630
12540
12341
12226
12225
12180
12097
11850
11724
11620
11557
11594
11718
11973
12039
12108
12180
12212
12179
12214
12234
12285
12314
12339
12408
12417
12367
12299
12267
12320
12319
12355
12350
12363
12335
12273
12214
12147
12197
12215
12246
12309
12322
12302
12295
12226
12213
12136
12101
12077
12057
12016
12085
12109
12001
11925
11833
11795
11767
11865
11980
12058
12132
12219
12377
12413
12354
12294
12299
12366
12434
12552
12626
12562
12470
12353
12286
12235
12348
12352
12287
12095
11896
11704
11688
11657
11564
11430
11176
10864
10886
10973
11131
11440
12100
12371
12621
12792
12824
12832
12877
12868
12849
12784
12754
12715
12474
12211
11975
11834
11867
11984
11977
11895
11932
11970
11866
11823
11855
11948
12001
12292
12459
12600
12734
12799
12814
12707
12633
12563
12536
12539
12510
12414
12374
12278
12100
11690
11565
11457
11410
11510
11696
11833
11970
12112
12187
12196
12236
12292
12290
12280
12322
12372
12384
12433
12518
12530
12457
12481
12480
12426
12374
12294
12273
12178
12165
12194
12210
12235
12016
11909
11798
11614
11527
11638
11742
11790
11857
11994
12096
12162
12103
12092
12053
12003
12176
12165
12043
11943
11943
11984
12255
12499
12747
12882
12998
13174
13129
13037
12906
12857
12669
12512
12377
12310
12317
12285
12018
11772
11451
11107
10714
9960
9822
9943
10339
10816
11198
11541
11985
12644
12784
12950
13074
13045
12998
13168
13253
13212
13115
13015
12869
12758
12743
12815
12873
12898
12660
12511
12260
11961
11792
11425
11120
10800
10595
10556
10480
10601
10905
11325
11714
11965
12122
12137
12177
12274
12457
12620
12644
12668
12720
12730
12756
12735
12703
12680
12629
12675
12715
12713
12742
12682
12623
12512
12408
12302
12204
12135
12170
12253
12224
12140
12042
11964
11683
11698
11783
11881
11991
12018
11917
11851
11804
11822
11949
12218
12330
12417
12378
12184
11985
11939
12011
12059
12221
12483
12631
12660
12639
12658
12665
12568
12527
12464
12428
12401
12406
12379
12234
12084
11967
11864
11610
11578
11557
11474
11403
11388
11617
11799
12020
12312
12613
12762
12751
12816
12752
12625
12473
12137
11953
11733
11550
11350
11088
11058
11169
11314
11428
11517
11610
11818
12077
12252
12360
12669
12816
12949
13035
13164
13326
13402
13418
13392
13388
13332
12965
12711
12475
12261
12099
11813
11671
11538
11347
11155
10952
10878
10766
10640
10558
10507
10805
11141
11569
11984
12432
13019
13078
13048
12983
12874
12753
12559
12519
12584
12690
12828
12947
12846
12700
12572
12551
12568
12563
12505
12449
12335
12130
11571
11355
11265
11349
11478
11759
11755
11762
11883
12003
12063
12055
12070
12116
12193
12254
12490
12533
12474
12537
12592
12616
12754
12813
12818
12785
12757
12710
12626
12575
12546
12465
12205
12057
11943
11891
11763
11577
11409
11439
11462
11443
11504
11847
11844
11817
11951
12161
12267
12439
12453
12478
12523
12515
12387
12329
12334
12317
12190
11905
11781
11738
11670
11575
11570
11847
11931
12020
12097
12161
12131
12171
12115
12016
12099
12197
12378
12430
12491
12464
12438
12518
12566
12580
12497
12390
12360
12349
12274
12246
12196
12245
12364
12427
12465
12449
12392
12297
12235
12196
12105
12078
12008
12038
12036
11947
11882
11875
12007
11962
11912
11969
12078
12180
12361
12490
12574
12570
12454
12157
11838
11441
11194
11116
11264
11300
11317
11352
11422
11549
11908
12107
12399
12684
12863
12972
13014
12988
12904
12683
12407
12085
12008
11966
11985
12046
12127
12105
12095
12122
12152
12160
12172
12180
12231
12301
12357
12323
12302
12330
12360
12347
12282
12232
12183
12163
12203
12325
12415
12465
12503
12493
12458
12469
12474
12455
12392
12355
12319
12223
12204
12205
12221
12183
12170
12121
12024
11948
11927
11931
11856
11824
11787
11737
11734
11986
12215
12310
12277
12191
11831
11718
11748
11854
11963
12023
12172
12233
12308
12381
12391
12470
12416
12396
12448
12500
12371
12315
12346
12424
12606
12844
13095
13036
12974
12794
12570
12127
11953
11861
11782
11650
11453
11184
11027
10892
10849
10898
11051
11101
11085
11052
10919
10868
11239
11494
11763
12085
12412
12848
13069
13250
13276
13306
13300
13222
13083
12955
12878
12807
12613
12524
12471
12435
12342
12066
11946
11821
11740
11721
11786
11956
12081
12236
12330
12428
12600
12614
12640
12691
12690
12632
12571
12486
12377
12264
12103
11590
11423
11330
11350
11396
11567
11774
11986
12093
12142
12254
12336
12360
12380
12377
12467
12722
12772
12695
12629
12485
12366
12058
11897
11680
11542
11607
12091
12278
12360
12427
12396
12070
11889
11808
11793
11768
11854
12033
12099
12163
12159
12186
12125
12025
11862
11772
11668
11560
11469
11550
11736
11971
12173
12410
12477
12545
12622
12581
12491
12435
12384
12400
12391
12328
12140
12176
12301
12404
12480
12630
12628
12586
12561
12540
12489
12076
11967
11970
12032
12043
12151
12161
12194
12310
12444
12549
12499
12449
12455
12475
12492
12603
12720
12722
12662
12540
12241
12128
11854
11544
11343
11146
10922
10998
11276
11563
11814
12013
12005
12004
12114
12248
12306
12348
12344
12317
12206
12064
11982
11896
11773
11615
11480
11370
11472
11612
11726
11746
11813
12066
12071
12105
12132
12230
12292
12313
12401
12567
12664
12751
12830
12779
12781
12734
12623
12366
12301
12318
12311
12280
12264
12360
12370
12344
12325
12391
12462
12452
12490
12501
12514
12701
12712
12643
12564
12544
12598
12570
12433
12364
12330
12312
12314
12274
12138
11953
11730
11405
10919
10935
11118
11375
11618
11984
12070
12132
12144
12104
12117
12054
11984
11895
11811
11739
11741
11822
11874
11879
11888
11926
11929
11974
12075
12158
12252
12332
12467
12687
12832
12867
12898
12779
12550
12354
12218
12041
11999
12070
12169
12235
12293
12368
12340
12238
12147
12082
12109
12099
12127
12076
11981
11927
11882
11989
12021
12055
12100
12181
12304
12566
12845
12964
12966
13001
12958
12844
12698
12590
12385
12336
12340
12364
12374
12074
11786
11581
11316
10929
10711
10972
11171
11472
11950
12497
13184
13356
13452
13440
13381
13232
12932
12763
12570
12380
12201
11694
11318
10967
10525
9998
9376
8861
8598
8611
8888
9399
10047
11317
11866
12426
12898
13227
13588
13719
13777
13681
13646
13633
13553
13499
13446
13384
13274
13054
12959
12867
12721
12591
12492
12325
12228
12247
12293
12216
12071
12020
12053
12062
12056
12177
12181
12134
12090
12114
12143
12127
12152
12195
12200
12151
12256
12342
12341
12252
12121
12148
12034
12071
12170
12253
12174
12109
12081
12034
11981
11955
11977
11958
11988
12046
12026
12061
12256
12367
12399
12339
12282
11880
11705
11568
11478
11424
11400
11618
11768
11863
11934
11974
12121
12179
12150
12180
12256
12412
12505
12631
12701
12676
12633
12754
12756
12676
12648
12640
12703
12817
12894
12847
12698
12431
12117
12005
11956
11980
12035
12007
11844
11606
11247
10771
10397
10031
10048
10285
10628
11029
11825
12181
12669
13084
13394
13770
13972
14151
14173
14176
14132
13955
13842
13691
13494
13309
12772
12475
12048
11536
11035
10519
9343
8935
8936
9135
9372
9696
10110
10566
10990
11228
11355
11622
11768
12014
12417
12955
13573
13694
13799
13821
13714
13604
13578
13491
13380
13237
13111
12986
12890
12840
12929
12916
12544
12382
12190
11943
11708
11461
11116
11009
11036
11458
11857
12392
12446
12407
12253
12097
11909
11893
11916
12050
12157
12290
12320
12243
12104
11892
11768
11536
11369
11218
11148
11191
11342
11632
11825
12020
12100
12070
12156
12157
12206
12369
12592
12725
12948
13006
13148
13301
13290
13174
13093
12939
12711
12616
12488
12310
12252
12207
12226
12156
11916
11704
11380
11047
10861
11227
11469
11618
11765
11903
12056
12369
12502
12560
12571
12587
12666
12709
12696
12638
12615
12394
12288
12243
12137
11949
11723
11574
11639
11746
11905
12128
12534
12782
13069
13365
13411
13339
13203
13055
12916
12768
12606
12024
11784
11678
11560
11406
11081
11093
11200
11286
11407
11611
11732
11727
11730
11620
11505
11163
10977
10725
10472
10277
10278
10639
10837
11041
11177
11223
11372
11512
11757
12017
12393
12911
13638
13717
13763
13796
13807
13653
13550
13465
13366
13287
13170
13066
12919
12766
12753
12685
12473
12444
12483
12419
12305
12076
11991
11950
11985
12027
12066
12171
12228
12230
12231
12219
12280
12334
12359
12358
12420
12426
12407
12395
12327
12298
12268
12322
12299
12319
12253
12214
12124
12100
12058
11958
11821
11681
11624
11557
11507
11548
11706
12174
12454
12647
12633
12510
12404
12237
12169
12040
11947
11996
12295
12517
12623
12547
12296
11586
11216
10827
10546
10347
10261
10922
11557
12125
12334
12342
12239
12143
12009
11900
11827
11777
11881
12056
12280
12381
12531
12683
12762
12794
12762
12716
13067
13339
13457
13408
13297
13132
12779
12752
12899
13011
13107
13629
13781
13779
13759
13718
13654
13407
13193
12957
12525
11957
10600
9924
9188
8536
8071
7789
7530
7433
7519
7728
8001
8350
8960
9643
10359
10979
11611
12826
13319
13627
13832
14058
14293
14429
14430
14438
14317
14151
13871
13755
13608
13447
13397
13351
13181
13151
13101
12975
12838
12647
12625
12623
12531
12473
12436
12314
12338
12350
12307
12131
11836
11695
11548
11493
11466
11213
11174
11174
11196
11259
11406
11798
11880
11898
11817
11827
12079
12239
12439
12626
12792
12933
13299
13646
13964
14325
14606
14809
14609
14366
14169
13877
13075
12766
12512
12344
12261
12179
11376
10600
9690
8701
7865
7107
6509
6238
6302
6580
7003
7667
8434
9332
10300
11295
12807
13280
13587
13835
14073
14299
14477
14436
14466
14488
14438
14316
14261
14230
14086
13918
13416
13194
13061
13053
12998
12863
12926
13056
12941
12633
12324
11747
11412
11133
10968
10962
11126
11446
11509
11611
11759
11882
12131
12111
11976
11792
11760
11847
12196
12466
12733
12977
13091
13299
13388
13406
13370
13343
12943
12721
12604
12405
12065
11649
10619
9925
9228
8699
8297
8103
8213
8660
9355
10015
10599
11192
11788
12897
13181
13314
13351
13394
13292
13218
13197
13152
13015
12955
12923
12905
12921
12935
12944
12885
12867
12898
12869
12830
12850
12882
12794
12596
12510
12534
12637
12747
12884
12893
12821
12734
12659
12566
12501
12405
12108
11893
11796
11815
11885
11950
11969
11799
11414
10958
10574
10062
9986
10046
10195
10526
11003
11471
12224
12350
12564
12866
13223
13748
13875
13971
13965
13763
13176
12914
12634
12361
12307
12480
12826
12789
12653
12493
12210
11569
11345
11089
10818
10710
10644
10564
10605
10783
11125
11495
11898
11987
12037
12007
11897
11755
11595
11562
11633
11785
11905
11967
12196
12474
12746
12889
13221
13472
13679
13748
13775
13768
13638
13599
13708
14043
14270
14110
13833
13467
13078
12675
12231
11066
10338
9752
9382
9171
9190
9448
9827
10250
10663
10968
11464
11418
11290
11123
11051
10879
10833
11029
11340
11740
12939
13557
13926
14188
14368
14548
14426
14260
14072
13804
13533
13107
12937
12754
12511
12291
12189
11798
11456
11177
10941
10643
10091
9964
10061
10315
10575
10852
11808
12288
12671
13006
13227
13361
13640
13681
13617
13507
13350
12975
12754
12490
12210
12029
11911
12033
12126
12204
12157
12087
11806
11645
11503
11368
11217
11439
11757
12133
12412
12622
12832
13227
13261
13188
13156
13090
12877
12846
12791
12611
12387
12085
11387
10990
10618
10291
10113
10082
10057
10103
10238
10489
11295
11659
11876
11892
11816
11827
11917
12020
12279
12673
13107
13806
13982
14003
13982
13866
13769
13456
13325
13233
13266
13078
12700
12563
12472
12390
12292
12122
11337
10916
10507
10178
10100
10459
10898
11419
11833
12089
12621
12788
12852
12939
13088
13192
13091
13016
12962
12890
12696
12197
11933
11722
11593
11476
11380
11265
11341
11494
11628
11825
12516
12994
13508
13802
13864
13664
13722
13849
13807
13496
13086
12365
12115
12032
12033
11874
11726
11591
11286
10941
10620
10319
10033
9978
9962
10030
10249
10724
11301
12133
12104
11832
11496
11228
11061
11090
11225
11447
11855
12365
13293
13686
14138
14401
14467
14491
14467
14358
14245
14179
14090
14032
13957
13743
13357
12819
11566
10914
10371
10026
9814
9838
10079
10594
10871
11011
11123
11280
11577
12098
12167
12188
12154
12062
11786
11856
12013
12226
12283
12329
12378
12356
12271
12180
12081
11843
11868
11976
12130
12374
12870
13113
13198
13069
12933
12836
12729
12716
12666
12615
12526
12351
12339
12225
11948
11666
11411
10917
10707
10643
10701
10806
11122
11195
11235
11278
11442
11898
12154
12432
12575
12662
12691
12693
12796
12838
12859
12945
13195
13250
13244
13182
13183
13234
13153
13114
13015
12806
12573
12553
12510
12416
12437
12553
12789
12860
12836
12806
12714
12566
12131
11953
11826
11642
11442
11104
10850
10596
10422
10243
10072
10159
10481
10817
11101
11331
11850
12088
12326
12629
12963
13253
13708
13735
13639
13400
13239
13014
12867
12881
12943
12982
13055
12898
12707
12451
12093
11727
11166
10876
10594
10485
10612
11202
11665
12204
12704
13038
13144
12875
12535
12283
12045
11889
11596
11387
11458
11644
11803
12070
12227
12405
12509
12592
12604
12101
11835
11536
11262
11016
11211
11694
12266
12808
13280
13618
13639
13318
13081
12851
12507
12065
11991
11977
11957
11899
11823
11574
11270
10877
10458
10045
9735
9931
10308
10734
11212
11830
12462
13493
13989
14247
14076
13774
13501
13118
12966
12785
12698
12555
12310
12285
12245
12238
12173
12166
12297
12416
12430
12393
12430
12821
13078
13283
13394
13384
13237
13249
13189
13002
12741
12391
11383
10905
10604
10518
10476
10601
10611
10637
10694
10747
11077
11256
11435
11650
11825
12094
12734
13009
13154
13262
13332
13561
13601
13581
13561
13518
13283
12559
12082
11583
11036
10600
10153
10147
10337
10683
10926
11098
11075
11006
11137
11486
12139
13805
14471
14927
15189
15281
15305
15294
15050
14663
14183
13693
12854
12409
11942
11394
10839
9860
9527
9203
8873
8588
8450
8545
8704
8949
9422
10156
11025
11971
12958
13838
15042
15281
15256
14899
14379
13447
13196
12988
12637
12123
11649
11010
10846
10929
11005
10894
10869
11005
11250
11491
11650
11715
11743
11778
11936
12126
12275
12452
12754
13103
13371
13578
14141
14311
14354
14261
14063
13662
12660
12199
11806
11464
11018
10324
10149
9994
9903
9988
10136
10288
10547
11248
11339
11406
11585
11876
12195
12995
13324
13617
13886
14111
14252
14127
13985
13878
13678
13358
12729
12492
12324
12206
12084
11817
11594
11374
11051
10739
10316
10344
10507
10772
10967
11160
11841
12285
12569
12743
12736
12542
12479
12451
12451
12477
12593
12953
13124
13202
13229
13219
13039
12967
13012
13330
13804
14338
14230
13878
13389
13015
12589
11692
11384
11090
10778
10508
10053
9873
9789
9715
9627
9559
9455
9269
9098
8992
9014
9138
9577
10196
11012
11948
12715
13830
14247
14577
14872
15011
14931
14867
14891
14982
15065
14967
14321
13913
13449
13000
12649
12197
11983
11665
11435
11305
11209
11257
11273
11133
10897
10578
9811
9481
9297
9337
9617
10118
10626
11159
11727
12247
13209
13661
14056
14263
14333
14319
14272
14157
13979
13754
13495
12955
12659
12301
11925
11509
10635
10265
10097
10134
10242
10595
10795
11157
11740
12388
12921
13489
13645
13741
13754
13782
14027
14213
14342
14269
13998
13529
12838
12472
12054
11558
11061
9939
9469
8949
8487
8228
8226
8482
8886
9361
9806
10221
10678
11214
11594
11827
12570
12977
13260
13447
13583
13663
13643
13579
13572
13538
13077
12826
12505
12180
11917
11655
11312
11490
11911
12331
12710
13480
13850
14131
14310
14389
14277
13756
13377
13007
12760
12599
12244
12047
11910
11805
11753
11685
11355
11162
10947
10605
10203
9645
9659
9944
10480
11109
11661
12113
12452
12906
13110
13294
13330
13285
13220
13073
12990
12934
12848
12725
12419
12272
12132
11995
11880
11824
11920
12063
12184
12332
12420
12487
12580
12780
13064
13204
13351
13353
13228
12882
12475
12010
11265
10998
10923
11038
11254
11601
11610
11531
11354
11087
10803
10759
10784
10925
11070
11496
12942
13491
13912
14105
13998
13311
13079
12988
12919
12809
12774
12683
12541
12266
11820
11150
9312
8556
8006
7619
7411
7587
8438
9753
10904
11840
12722
13460
14027
14454
14494
14479
14420
14414
14394
14338
14165
13930
13700
13363
12831
12716
12574
12379
12135
11356
11009
10891
10789
10734
10870
11279
11538
11738
11899
12166
12716
12936
13013
12981
12944
12675
12549
12425
12292
12172
12206
12648
12724
12694
12499
12286
11971
11806
11774
11733
11660
11619
11602
11729
11911
12119
12276
12338
12332
12241
12198
12232
12525
12743
12922
13056
13091
13063
13035
13009
12935
12891
12816
12433
12082
11712
11386
10958
10644
10580
10577
10453
10424
10588
11000
11293
11745
12340
12904
13542
13518
13413
13365
13261
13160
13055
12968
12773
12366
11872
10917
10458
9959
9623
9558
9769
10181
10801
11546
12681
13043
13330
13511
13607
13621
13353
13125
12924
12691
12517
12317
12173
12055
12126
12217
12260
12054
11952
11839
11769
11727
12046
12395
12751
12941
13106
13290
13234
13048
12842
12688
12592
12471
12365
12371
12449
12516
12730
12464
12072
11474
10894
10382
9689
9674
9911
10449
11128
11613
12049
12420
12698
12679
12643
12506
12298
11856
11690
11542
11426
11500
11689
12007
11964
11947
11930
11857
11893
11976
12144
12391
12681
13029
13383
13405
13358
13348
13349
13162
13092
13026
12872
12721
12314
12105
11982
12081
12227
12301
12420
12484
12433
12346
12357
12324
12165
11997
11823
11903
12018
12033
12008
12001
12048
12200
12404
12305
12102
11933
11719
11620
11733
11870
11956
12012
11998
11745
11417
11147
10929
10847
10263
9899
9718
9755
10090
10593
11118
11704
12462
12774
13200
13625
13926
14136
14276
14203
14035
13909
13698
13214
13041
12872
12717
12560
12443
12254
12275
12392
12367
12320
11999
11935
11804
11653
11470
11207
11241
11328
11427
11556
11734
12145
12387
12648
12841
12896
12770
12597
12339
12052
11860
11891
11987
12105
12283
12329
12306
12082
12138
12145
12032
11785
11438
10809
10696
10807
11003
11154
11860
12300
12668
12914
13056
13032
13073
13159
13154
13053
12898
12472
12464
12573
12663
12711
12746
12707
12660
12602
12555
12443
12112
11760
11265
10756
10182
9616
9704
10008
10408
10876
11246
11610
12513
12843
13031
13154
13277
13392
13317
13248
13080
12933
12852
12704
12651
12610
12563
12542
12515
12298
12229
12122
11972
11883
11491
11263
11156
11128
11194
11665
11930
12187
12277
12292
12395
12648
12743
12697
12533
12334
11973
11949
12107
12227
12280
12291
12290
12316
12451
12582
12698
12593
12451
12301
12155
12022
12043
12082
12094
12080
12043
12050
11828
11842
11874
11800
11740
11506
11513
11630
11795
12030
12276
12580
12591
12722
12858
12932
12744
12552
12333
12177
12034
11894
11767
11881
12014
12080
12113
11989
11819
11663
11586
11655
12209
12472
12595
12623
12655
12677
12742
12724
12654
12565
12473
12243
12166
12074
12028
12031
12057
12003
12028
12005
11925
11890
12203
12407
12499
12500
12514
12557
12627
12627
12490
12291
12116
11965
11854
11730
11692
11634
11146
11132
11312
11611
11840
12042
11853
11576
11380
11319
11346
11808
12169
12589
12879
13073
13155
13098
12983
12864
12805
12778
12645
12542
12433
12267
12087
11641
11450
11352
11389
11461
11515
11445
11534
11720
11858
11947
12145
12275
12449
12520
12584
12695
12758
12751
12740
12695
12714
12819
12842
12795
12613
12574
12657
12617
12628
12614
12527
12398
12099
12009
11836
11639
11492
11424
11411
11404
11459
11636
11971
12165
12105
12049
11995
11915
11784
11838
11869
11826
11658
11493
11415
11414
11467
11562
11639
11852
12009
12095
12155
12271
12579
12675
12704
12735
12783
12848
12942
12963
12984
12926
12869
12879
12849
12748
12645
12576
12557
12394
12291
12210
12167
12123
12118
12085
12106
12176
12261
12215
12102
11939
11889
11908
11914
11815
11877
11984
12025
12080
12218
12192
12152
12083
11918
11797
11463
11404
11446
11598
11702
11969
12008
11934
11819
11745
11622
11637
11748
11953
12182
12387
12703
12774
12801
12725
12637
12460
12458
12483
12465
12602
12783
12993
12986
12892
12852
12711
12288
12049
11760
11471
11296
11213
11212
11338
11496
11546
11484
11444
11663
11994
12232
12363
12464
12518
12502
12499
12590
12658
12800
12817
12879
12857
12755
12274
11973
11696
11618
11704
11873
11829
11780
11737
11734
11815
12036
12162
12262
12270
12296
12322
12358
12359
12375
12419
12345
12192
12301
12386
12383
12322
12023
11889
11815
11718
11726
11787
11920
12042
12246
12365
12348
12304
12332
12266
12187
12128
12154
12370
12437
12450
12398
12334
12154
12185
12202
12205
12285
12369
12360
12306
12242
12222
12264
12313
12277
12313
12252
12142
11873
11803
11720
11665
11721
11787
11947
12077
12298
12477
12559
12474
12306
12142
12064
12035
12151
12167
12214
12230
12250
12291
12382
12338
12283
12181
11990
11594
11597
11695
11836
12014
12139
12108
12101
12170
12206
12188
12150
12255
12363
12449
12501
12582
12536
12447
12384
12236
12006
11479
11399
11511
11676
11807
12099
12074
12069
12110
12135
12210
12189
12297
12402
12473
12480
12466
12473
12434
12442
12507
12546
12499
12453
12387
12304
12180
12100
12145
12142
12164
12249
12225
12131
12095
12138
12174
12168
12227
12208
12160
12092
12087
11939
11694
11647
11679
11634
11595
11586
11648
11667
11679
11751
11993
12012
12066
12182
12366
12516
12539
12582
12609
12589
12592
12707
12626
12548
12508
12536
12499
12396
12414
12401
12307
12237
12346
12453
12426
12368
12294
12008
11924
11846
11780
11680
11561
11691
11791
11875
11948
12016
12098
12054
12033
12080
11991
11888
12009
12147
12327
12401
12539
12698
12680
12658
12571
12484
12203
12120
12094
11962
11817
11747
11946
12049
12164
12243
12267
12118
12060
12029
11995
12017
12295
12402
12381
12273
12182
12116
12017
12042
12022
11907
11825
11997
12192
12360
12461
12487
12462
12249
12199
12214
12301
12329
12320
12236
12131
12066
12041
11958
11848
11729
11695
11794
11892
12006
12065
12135
12059
12046
12111
12186
12309
12381
12401
12403
12452
12526
12504
12442
12308
12341
12333
12296
12318
12364
12350
12364
12431
12443
12426
12285
11877
11638
11538
11573
11639
11864
11998
12163
12349
12416
12431
12586
12623
12639
12636
12715
12679
12587
12489
12319
12157
11902
11234
11021
10928
10909
11039
11415
11573
11820
12004
12154
12266
12277
12279
12244
12252
12273
12478
12595
12536
12472
12368
12085
12041
12070
12146
12223
12316
12447
12477
12464
12385
12407
12426
12433
12452
12488
12545
12525
12424
12391
12424
12534
12620
12629
12459
12254
12041
11896
11713
11713
11766
11766
11733
11684
11909
11998
12010
11969
11961
12097
12144
12179
12215
12231
12322
12419
12417
12429
12402
12372
12304
12314
12323
12228
12134
11980
11880
11755
11600
11468
11385
11361
11519
11764
11994
12087
12116
12085
12043
12103
12148
12184
12314
12387
12472
12534
12576
12468
12402
12327
12295
12256
12390
12454
12455
12517
12523
12494
12182
12071
12064
12119
12132
12164
12150
12033
11920
11770
11623
11554
11738
11957
12128
12275
12448
12431
12425
12386
12400
12431
12452
12459
12435
12402
12366
12323
12342
12341
12318
12212
11994
11897
11792
11751
11792
11899
12077
12162
12197
12180
12165
12151
12074
12090
12157
12210
12250
12301
12380
12400
12348
12372
12497
12422
12286
12256
12197
12018
12007
12025
12026
12053
12107
12020
11918
11822
11710
11730
11917
11989
12097
12244
12365
12524
12654
12621
12616
12721
12712
12284
12159
12102
12073
12122
12177
12135
12077
12029
11990
11970
11735
11561
11479
11445
11457
11388
11369
11480
11754
11965
12183
12323
12362
12486
12601
12643
12595
12602
12592
12551
12628
12770
12725
12622
12574
12500
12492
12455
12433
12368
12271
12160
12048
11936
11776
11693
11715
11848
11967
11932
11893
11827
11836
12026
12017
11932
11856
11782
11728
11712
11932
12215
12513
12705
12895
12859
12695
12573
12382
12225
12092
12109
12213
12411
12474
12480
12422
12321
12169
12042
11605
11407
11337
11277
11249
11273
11552
11834
12094
12287
12502
12782
12839
12829
12835
12808
12696
12529
12478
12425
12436
12454
12490
12366
12252
12200
12103
11796
11697
11651
11605
11615
11678
11817
11811
11889
11994
12126
12284
12225
12076
11874
11679
11549
11638
11808
11985
12149
12351
12566
12530
12537
12525
12489
12465
12484
12488
12504
12562
12613
12587
12496
12499
12504
12443
12333
12354
12364
12318
12280
12204
12105
12135
12219
12212
12189
11935
11762
11645
11571
11497
11383
11614
11771
11951
12116
12205
12198
12125
12101
12048
11964
11831
11862
11897
11937
12075
12246
12351
12414
12505
12561
12561
12646
12724
12723
12675
12588
12551
12298
12180
12075
12038
11944
11623
11512
11416
11415
11443
11618
11751
11911
12090
12247
12359
12486
12507
12592
12615
12629
12709
12654
12624
12549
12490
12458
12509
12595
12571
12485
12360
12197
12093
11941
11819
11789
11720
11563
11453
11407
11422
11476
11562
11692
11874
11954
11932
11885
11918
12066
12263
12437
12539
12586
12523
12457
12380
12332
12408
12441
12449
12411
12413
12393
12350
12415
12431
12383
12337
12101
11982
11992
12122
12191
12302
12273
12182
12076
12012
11986
12126
12188
12235
12325
12410
12366
12321
12328
12289
12240
12186
12192
12252
12306
12390
12442
12415
12350
12340
12353
12250
12092
11939
11809
11670
11639
11707
11952
12023
12095
12118
11987
11750
11743
11882
11952
11944
12109
12144
11932
11870
11895
11861
11857
11991
12242
12459
12549
12635
12736
12612
12575
12650
12717
12593
12522
12439
12318
12183
12118
12144
12133
12064
11982
11972
11540
11291
11202
11227
11266
11518
11612
11663
11736
11896
12125
12358
12469
12526
12565
12543
12517
12579
12590
12526
12476
12477
12479
12414
12398
12439
12446
12246
12201
12203
12209
12179
12207
12254
12236
12220
12242
12300
12220
12199
12198
12207
12141
12099
12101
12137
12117
12104
12124
12181
12156
12183
12185
12148
12112
12105
12168
12120
12154
12228
12226
12194
12170
12232
12286
12275
12334
12383
12422
12343
12290
12372
12430
12363
12305
12273
12242
12170
12095
12100
12077
11897
11800
11711
11658
11565
11469
11575
11719
11861
11988
12110
12186
12152
12249
12455
12603
12766
12829
12865
12860
12838
12847
12525
12295
12063
11872
11734
11504
11399
11346
11226
11073
10988
11005
11159
11264
11442
11718
12180
12366
12543
12734
12861
12869
12971
12995
12958
12925
12909
12730
12591
12526
12518
12459
12138
12004
11800
11702
11683
11770
12044
12020
11965
11890
11878
11938
11968
12036
12134
12195
12294
12315
12340
12317
12327
12361
12308
12302
12301
12321
12321
12219
12216
12250
12229
12215
12239
12352
12335
12318
12286
12266
12232
12207
12180
12186
12105
12144
12126
12150
12165
12168
12192
12134
12139
12204
12229
12200
12034
12003
11996
11980
11955
12038
12200
12203
12213
12202
12167
12157
12189
12175
12202
12242
12231
12232
12264
12333
12378
12399
12285
12216
12169
12074
12040
12108
12097
12043
11923
11825
11785
11753
11837
11945
11972
11961
12010
12140
12222
12256
12376
12475
12470
12417
12361
12356
12313
12197
12226
12254
12233
12163
12006
11863
11770
11732
11730
11642
11570
11621
11748
11910
12003
12170
12220
12236
12281
12359
12458
12555
12581
12654
12701
12701
12622
12536
12482
12438
12374
12300
12240
12182
12173
12135
12048
11824
11775
11801
11856
11881
11804
11822
11887
11955
12037
12142
12252
12306
12371
12386
12366
12315
12297
12296
12296
12288
12312
12418
12425
12435
12434
12407
12327
12292
12266
12236
12223
12135
12110
12107
12029
11959
11997
12064
12092
12078
12049
12011
11911
11979
12057
12117
12175
12256
12406
12376
12295
12227
12234
12280
12314
12364
12398
12375
12301
12144
12110
12038
11973
11922
11920
11774
11576
11432
11441
11754
12044
12275
12405
12472
12469
12388
12330
12229
12231
12281
12278
12250
12325
12390
12376
12408
12530
12601
12696
12759
12724
12378
12095
11754
11465
11212
11231
11438
11651
11800
11842
11865
12009
12040
11985
11894
11833
11701
11740
11929
12176
12338
12484
12625
12680
12694
12712
12714
12696
12673
12635
12604
12482
12278
12287
12304
12306
12241
12155
12118
12103
12019
11890
11866
11921
11915
11922
11956
12035
12051
12204
12300
12331
12371
12390
12301
12237
12203
12322
12499
12609
12476
12444
12415
12289
12162
12137
12131
12033
11907
11839
11807
11743
11684
11704
11772
11779
11759
11742
11800
11833
11825
12201
12539
12822
13018
13171
13268
13247
13208
13195
13152
13030
12730
12648
12568
12432
12249
11896
11585
11243
11022
10832
10686
10234
10027
10032
10173
10393
10861
11239
11551
11853
12166
12442
12778
12853
12911
12954
12976
12936
12912
12888
12865
12783
12711
12732
12656
12616
12651
12681
12624
12554
12486
12459
12476
12562
12614
12669
12601
12511
12429
12159
11927
11783
11724
11733
11660
11746
11877
11947
11937
11918
11977
11956
11910
11961
12003
11911
11980
11999
12029
12085
12037
12098
12259
12317
12402
12443
12523
12513
12480
12508
12535
12610
12663
12711
12731
12716
12587
12323
12140
11949
11789
11678
11379
11396
11587
11820
11968
12057
12003
11992
11951
11833
11787
11795
11833
11884
11985
12113
12053
11962
11946
12001
12052
12090
12200
12260
12327
12423
12546
12641
12635
12635
12567
12493
12484
12582
12587
12628
12604
12535
12216
12023
11872
11751
11668
11676
11750
11866
11955
12060
12140
12066
11945
11754
11550
11526
11839
12003
12185
12336
12465
12628
12810
12767
12726
12673
12583
12512
12490
12477
12515
12487
12468
12417
12375
12270
12027
11697
11176
11141
11144
11277
11490
11962
12062
12130
12154
12170
12225
12323
12405
12474
12558
12560
12433
12314
12148
11949
11801
11776
11816
11785
11786
11820
11885
12056
12182
12305
12358
12348
12519
12523
12453
12433
12402
12406
12340
12299
12346
12425
12490
12424
12450
12449
12409
12335
12291
12325
12285
12281
12312
12339
12257
12105
12139
12085
12021
11904
11942
12014
11988
11892
11864
11718
11702
11761
11834
11932
11904
11942
12044
12139
12166
12195
12348
12379
12386
12433
12502
12570
12510
12520
12520
12498
12489
12519
12472
12341
12123
11902
11559
11425
11290
11242
11383
11929
12269
12556
12772
12971
13053
13160
13218
13214
13156
13058
12695
12397
12083
11927
11843
11699
11679
11630
11441
11120
10753
10278
10143
9985
9925
10114
10515
10937
11689
12015
12326
12549
12692
12850
13017
13073
13104
13091
13138
12988
12894
12792
12711
12700
12669
12708
12710
12656
12575
12513
12560
12588
12513
12498
12483
12413
12374
12304
12235
12123
12027
12055
12098
12081
12029
11958
11855
11802
11813
11917
12007
12087
12287
12334
12341
12330
12228
12238
12275
12296
12353
12442
12525
12499
12548
12532
12413
12151
11701
11570
11538
11511
11449
11501
11522
11559
11632
11749
11921
12216
12223
12253
12291
12203
12095
12089
12071
12091
12190
12338
12294
12231
12209
12199
12213
12179
12222
12324
12412
12433
12482
12478
12509
12539
12528
12522
12547
12540
12507
12467
12402
12233
12208
12158
12115
12105
12023
11724
11606
11542
11502
11454
11401
11468
11631
11839
12052
12351
12395
12410
12490
12548
12602
12643
12658
12621
12543
12439
12132
12050
11986
11997
12073
12196
12191
12099
12072
12026
12069
12381
12567
12672
12645
12556
12239
11996
11613
11243
10991
10858
10794
10914
11087
11290
11549
12097
12339
12546
12799
13094
13438
14006
14153
14215
14146
13976
13439
13217
12953
12675
12485
12384
12270
12155
11893
11580
11263
10545
10195
9873
9612
9433
9335
9318
9470
9757
10185
10677
11168
11962
12210
12483
12802
13063
13327
13362
13312
13253
13242
13235
13160
13132
13015
12959
12940
12788
12720
12706
12708
12651
12531
12458
12419
12406
12399
12354
12304
12257
12208
12199
12219
12169
12224
12248
12264
12235
12214
12109
12042
11909
11799
11785
11832
11856
11986
12100
12196
12207
12192
12193
12139
12032
11991
11996
12032
12091
12169
12272
12419
12517
12667
12812
12853
12870
13042
13089
13069
12943
12887
12560
12446
12397
12314
12147
11928
11520
11281
11130
11068
10949
10519
10422
10314
10201
10053
9818
9921
10185
10583
11105
11723
12279
12671
13117
13288
13399
13501
13654
13786
13772
13771
13672
13605
13431
13348
13267
13175
13047
12873
12456
12132
11789
11534
11358
11424
11532
11605
11575
11515
11448
11579
11648
11592
11570
11611
11648
11709
11831
12062
12289
12566
13262
13626
13813
13751
13507
13079
12806
12593
12408
12320
12193
12232
12276
12327
12300
12161
11561
11173
10716
10205
9759
9455
9361
9456
9752
10213
11276
11672
11914
12066
12193
12594
12774
12922
13012
13130
13145
12979
12861
12789
12747
12697
12665
12673
12667
12692
12715
12708
12698
12668
12617
12603
12616
12578
12551
12532
12525
12589
12658
12771
12973
13061
13054
12975
12784
12657
12547
12470
12351
12164
12080
12016
11958
11835
11636
11250
11068
10943
10942
10989
10928
10889
10968
11159
11444
12359
12774
13141
13530
13817
13996
14046
13913
13796
13701
13522
12854
12537
12272
12042
11799
11483
10683
10231
9737
9253
8907
8804
8745
8710
8791
9167
9649
10137
10655
11601
12086
12528
12882
13125
13353
13464
13496
13525
13551
13551
13648
13699
13696
13626
13503
13428
13312
13253
13182
13101
12987
12811
12699
12575
12484
12377
11947
11685
11454
11274
11177
11168
11377
11635
11980
12263
12491
12796
12872
12890
12861
12804
12842
12778
12747
12825
12920
13019
13031
12974
12874
12662
12414
11792
11439
11168
10862
10566
10381
10471
10754
10965
11022
10938
10673
10759
10842
11003
11238
11469
11868
11815
11709
11701
11778
11983
12164
12379
12592
12748
12856
12865
12896
12952
13018
13030
13004
12936
12860
12828
12754
12763
12780
12797
12802
12782
12789
12753
12744
12810
12836
12867
12912
12960
12920
12792
12674
12587
12309
12158
12121
12062
11900
11367
11185
11020
10899
10847
10935
10946
10935
11007
11190
11447
11741
11761
11771
11810
11952
12170
12330
12532
12743
13039
13399
13932
14022
14070
14040
13928
13549
13354
13126
12955
12764
12357
12086
11802
11615
11493
11271
10477
9948
9361
8863
8468
8396
8581
9017
9660
10377
11046
11690
12303
13195
13447
13583
13611
13631
13849
13818
13817
13898
13899
13772
13617
13391
13156
12988
12842
12514
12424
12285
12141
11981
11572
11330
11164
11069
11051
11027
11220
11260
11343
11520
11703
12232
12446
12600
12741
12823
12823
12685
12577
12435
12269
12110
11615
11335
11090
10869
10684
10508
10559
10692
10916
11234
11537
12126
12384
12704
13025
13372
13731
13734
13686
13613
13532
13559
13568
13474
13330
13163
12996
12537
12318
12147
11969
11831
11769
11684
11610
11612
11487
11307
11190
11231
11227
11257
11295
11431
11648
11966
12325
12664
12886
12823
12758
12754
12757
12751
12646
12608
12555
12523
12560
12869
12893
12872
12802
12698
12585
12368
12233
12006
11815
11762
11641
11632
11733
11803
11833
11873
11892
11853
11761
11613
11468
11273
11214
11263
11312
11348
11390
11606
11661
11686
11729
11776
12297
12866
13353
13699
14001
14331
14281
14251
14298
14529
14862
15233
15066
14783
14402
13954
12550
11726
11011
10276
9551
8988
8734
8746
8862
8899
8933
8870
8678
8354
8001
7836
7946
8264
9330
10056
10802
11483
12043
12565
13000
13587
13680
13755
13833
13841
13792
13783
13785
13793
13749
13670
13548
13444
13311
13202
13134
13080
13096
13089
13056
13104
13159
13130
13074
12987
12949
12841
12582
12474
12380
12323
12287
12173
12015
11949
11919
11909
11953
12006
12002
11965
11940
11853
11697
11657
11678
11728
11789
11817
11978
12060
12180
12269
12481
13008
13096
13100
13084
13125
13050
12894
12801
12723
12683
12734
12920
12834
12650
12425
12106
11446
11235
11025
10806
10512
10200
9502
9161
8911
8842
8891
9082
9317
9648
10037
10460
10879
11351
12277
12458
12648
12847
13021
13167
13587
13725
13776
13774
13692
13586
13555
13515
13456
13479
13419
13331
13368
13495
13638
13803
14006
14108
14220
14271
14294
14217
14045
13900
13984
14104
14038
13400
12758
11867
10997
10230
8688
8062
7636
7317
7070
6912
6842
6923
7168
7667
8170
8662
9326
9981
10582
11251
12069
12938
14579
14984
15065
14988
14886
14787
14646
14495
14373
14249
14058
13729
13656
13591
13425
13161
12846
12311
12117
11868
11711
11737
12081
12144
12185
12245
12329
12340
12203
11985
11751
11504
11223
11003
11110
11203
11260
11334
11485
11550
11565
11591
11666
11761
11792
11846
12035
12194
12338
12756
12885
12914
12932
12994
13024
12993
12978
12983
12991
12985
12975
12972
12948
12917
12831
12504
12241
12024
11833
11625
11432
11421
11469
11569
11789
11987
12465
12649
12655
12602
12518
12422
12143
11868
11646
11516
11437
11082
10740
10340
10007
9842
9834
9904
10097
10820
11371
11971
12574
13132
13819
15543
16315
16824
17107
17182
16940
16790
16544
16268
15929
15485
14275
13710
13176
12642
12113
10759
9541
8199
6759
5336
4132
3229
2761
2802
3401
4447
5571
6581
7478
8382
9313
10181
10970
11713
13173
13800
14318
14650
14823
15004
15473
15681
15770
15917
16016
15856
15627
15311
14943
14610
13956
13487
13033
12619
12374
12175
11747
11565
11399
11347
11367
11413
11387
11379
11380
11426
11560
11904
12142
12306
12409
12472
12563
12549
12482
12282
12044
11591
11591
11656
11762
11986
12294
12746
12839
12867
12861
12824
12615
12411
12163
11995
11977
12062
12242
12468
12734
12853
12792
12747
12974
13233
13336
13222
13133
13195
13224
13180
13106
12931
12076
11778
11770
11851
11915
12333
12372
12149
11804
11361
10764
9257
8622
8356
8445
8923
9632
10438
10947
11115
11052
10850
10656
10727
11025
11461
11912
12637
12829
12867
12901
12740
12011
11712
11553
11591
11762
12000
12458
12635
12664
12866
13147
13377
13582
13821
14056
14264
14405
14461
14463
14448
14383
14270
13896
13534
13139
12804
12457
12053
11021
10470
9991
9632
9541
9609
9805
10095
10368
10658
11311
11666
12062
12408
12604
12942
13072
13246
13454
13619
13632
13599
13587
13497
13351
13217
12961
12875
12762
12618
12506
11835
11433
11055
10760
10592
10589
10988
11196
11592
12195
12757
13691
14015
14059
14013
13995
13754
13491
13250
12960
12606
12238
11536
11270
10976
10764
10604
10431
10189
9868
9424
8789
8082
7553
7257
7136
7407
8039
8971
9951
10978
11972
13004
14818
15386
15658
15838
16088
16110
15693
15091
14434
13820
13186
11982
11447
11150
11032
11060
11114
11018
10982
11086
11198
11563
11690
11776
11816
11888
12045
12461
12599
12771
12941
13046
13098
13116
13167
13269
13393
13483
13638
13597
13498
13333
13131
12865
12817
12725
12608
12493
12532
12563
12486
12204
11660
11051
10478
10442
10438
10427
10477
10920
11146
11319
11537
11803
12053
12529
12786
13004
13080
13123
13304
13251
13239
13209
13149
12982
12757
12816
12989
12997
12816
12293
11885
11435
10949
10500
10330
10332
10308
10251
10237
10212
9884
9535
9213
9165
9428
9830
10403
11013
11466
11824
12297
13084
13442
14058
14689
15048
15244
15056
14757
14473
14207
13909
13339
13123
12916
12802
12828
12507
12293
12081
11768
11416
11241
11547
11770
11864
11890
11898
12233
12509
12753
12862
12796
12258
11889
11527
11255
11059
10995
11389
11765
12062
12245
12226
11931
11775
11614
11494
11473
11432
11404
11385
11475
11664
11901
12925
13457
13838
14008
14054
14003
13904
13688
13308
12844
12367
11527
11276
11038
10936
11013
11381
11554
11657
11670
11729
11804
11794
11575
11428
11498
11799
12404
12791
13295
13638
13866
14081
14025
13896
13774
13608
13337
12476
12044
11733
11479
11336
10723
10147
9578
9060
8603
8255
8068
8156
8628
9347
10024
10642
11319
12981
13631
14000
14203
14395
14687
14636
14560
14474
14320
14124
13655
13432
13228
13064
12738
11714
11201
10688
10226
9932
9783
9794
10141
11093
11530
11891
12206
12456
12675
13335
13690
13786
13724
13667
13516
13524
13500
13295
13027
12804
12536
12364
12082
11849
11634
11249
11096
11053
11076
11310
11765
11851
11927
12054
12164
12174
12027
12064
12171
12259
12280
11870
11727
11706
11795
11926
11993
12058
12147
12238
12186
12166
12293
12325
12433
12568
12571
12180
12010
11945
11975
12081
12192
12410
12766
13179
13515
13653
13268
13041
12770
12546
12378
12348
12391
12370
12377
12376
12418
12309
12024
11681
11405
11129
10819
9798
9421
9321
9485
9944
10429
10926
11308
11516
11564
11722
11935
12177
12357
12391
12428
12566
13055
13599
13954
14290
14302
14240
14070
13810
13423
12729
12480
12295
12186
12106
11958
11922
11682
11301
11091
10944
10682
10635
10630
10856
11381
12189
12471
12719
12847
12868
12659
12394
11956
11532
11206
10943
11269
11865
12337
12616
12769
12889
12869
12802
12665
12524
12393
12319
12325
12312
12296
12289
12379
12402
12453
12581
12660
12774
13058
13170
13209
13206
13194
12991
12933
12877
12802
12700
12203
12040
11927
11832
11591
11438
11719
11743
11631
11468
11447
11634
11635
11608
11633
11786
11929
12009
12162
12268
12197
11997
10966
10494
10293
10239
10379
11064
11498
11942
12447
12945
13238
13310
13215
13167
13129
13067
12989
13018
13031
12956
12904
12864
12997
13079
13047
12967
12848
12408
12032
11696
11422
11270
10859
10557
10282
10027
9908
10066
10439
11550
11978
12383
12694
12802
12313
12079
11844
11863
12092
12394
12836
12934
13017
13094
13092
12652
12266
11906
11686
11591
11745
11968
12201
12444
12704
12935
13183
13076
12825
12452
12039
11730
11883
12052
12217
12426
12605
12791
12842
12905
12979
13034
12787
12623
12569
12520
12367
12212
12145
12156
12218
12227
12276
12187
12088
12104
12250
12490
12674
12637
12462
12164
11865
11549
11192
11134
11037
10798
10579
10487
10373
10339
10406
10391
10304
10376
10632
11170
11880
12683
13779
14068
14143
14081
13963
13608
13454
13333
13250
13170
13053
12510
12194
11977
11799
11687
11682
11736
11748
11701
11607
11494
11251
11205
11311
11439
11656
12160
12308
12387
12475
12617
12699
12948
13026
12983
12903
12809
12376
12163
12024
11933
11846
12125
12273
12368
12474
12614
12664
12718
12649
12654
12718
12702
12687
12692
12651
12618
12678
12640
12232
12104
12025
11982
11961
11974
12030
12080
12023
11917
11540
11285
10917
10508
10061
9657
9306
9068
9138
9725
11643
12532
13199
13664
13868
13919
13843
13734
13550
13398
13185
12601
12402
12260
12115
11870
11696
11630
11682
11665
11578
11563
11921
12278
12585
12729
12704
12820
12873
12934
12980
12993
12939
12584
12306
12010
11784
11598
11290
11143
11118
11239
11494
11722
11987
12081
12194
12320
12403
12527
12549
12535
12462
12352
12359
12845
13003
13135
13212
13246
13190
13179
13116
12977
12779
12329
12201
12186
12086
11863
11538
10617
10169
9951
9807
9678
9742
10024
10412
10848
11631
11892
12225
12486
12643
12977
13226
13479
13619
13632
13446
13056
12831
12653
12489
12272
11721
11619
11584
11573
11551
11579
11861
12018
12222
12407
12538
12566
12519
12564
12679
12729
12518
12494
12556
12653
12753
12709
12342
12121
11810
11396
10984
10770
10954
11217
11529
11828
12068
12393
12496
12576
12614
12638
12666
12667
12640
12748
12807
12771
12667
12614
12558
12458
12341
12163
12116
12032
11877
11731
11761
11804
11897
12001
11956
11824
11816
11842
11845
11839
11901
12119
12251
12402
12563
12683
12614
12623
12626
12653
12619
12572
12283
12225
12289
12315
12326
12382
12265
12192
12110
11978
11777
11339
11152
11064
11033
11164
11649
11922
12172
12274
12322
12230
12011
12002
11984
11873
11786
11869
12097
12353
12505
12531
12448
12431
12461
12449
12502
12511
12336
12304
12358
12286
12200
12062
12097
12247
12353
12392
12412
12305
12230
12223
12179
12134
12243
12195
12131
12087
11988
11892
11941
12024
12005
11983
11952
12142
12288
12353
12316
12293
12457
12507
12542
12496
12375
12301
12175
12167
12217
12186
12166
12060
11879
11793
11808
11918
12068
12008
11888
11947
12126
12300
12429
12458
12483
12501
12477
12319
12225
12151
12051
12048
12074
12123
12077
12088
12150
12211
12169
12114
12076
12086
12222
12328
12417
12420
12372
12371
12305
12143
12116
12110
12058
11953
11849
11847
11841
11893
11931
11967
11892
11867
11918
12018
12122
12178
12190
12098
12049
12109
12152
12161
12256
12303
12287
12214
12162
12205
12297
12369
12424
12442
12403
12339
12294
12294
12259
12273
12244
12221
12241
12314
12371
12326
12211
12054
11968
11985
12032
12088
12135
12040
11959
11967
11921
11928
11903
11892
11877
11898
11938
11967
11993
12024
12115
12191
12313
12375
12478
12624
12639
12694
12659
12633
12642
12604
12495
12459
12425
12407
12321
12233
12138
12070
11894
11595
11106
11062
11031
11085
11328
11788
12050
12236
12417
12652
12905
12958
12967
12945
12824
12682
12431
12323
12249
12118
12008
12068
11994
11859
11759
11802
11884
11782
11677
11610
11628
11728
12057
12343
12454
12468
12401
12373
12248
12255
12292
12254
12090
11705
11595
11567
11595
11630
11858
12028
12145
12229
12382
12504
12554
12589
12675
12705
12671
12538
12517
12511
12453
12384
12369
12376
12334
12315
12217
12104
11992
11961
11969
12018
12000
11866
11839
11894
12025
12161
12343
12441
12362
12319
12264
12202
12117
12097
12078
12035
12008
12067
12210
12212
12215
12229
12186
12301
12339
12335
12405
12498
12524
12423
12345
12221
12127
12105
11889
11704
11502
11491
11574
11872
11894
11930
12025
12079
12090
12274
12335
12373
12365
12352
12432
12409
12319
12186
12126
12038
11917
11883
11920
11851
11820
11814
11822
11867
11980
12158
12320
12338
12334
12364
12383
12387
12418
12441
12410
12396
12341
12274
12329
12405
12412
12409
12384
12328
12294
12255
12237
12208
12101
11997
11927
11950
11986
12026
12040
12010
12010
11997
11995
12005
12104
12190
12308
12352
12262
12309
12337
12340
12251
12193
12028
11952
11936
11959
12005
12068
12091
12043
12029
12081
12132
12081
12081
12137
12227
12259
12293
12330
12323
12294
12280
12183
12181
12192
12166
12174
12224
12339
12398
12424
12443
12451
12472
12434
12338
12200
12072
11980
11777
11601
11542
11586
11637
11595
11670
11801
11945
12038
12237
12328
12411
12446
12412
12384
12456
12420
12365
12349
12281
12256
12288
12336
12345
12357
12370
12331
12290
12144
12023
11922
11689
11655
11747
11894
12061
12134
12065
12072
12051
12067
12090
12238
12215
12213
12225
12231
12205
12226
12214
12204
12257
12275
12301
12290
12264
12202
12210
12167
12154
12196
12236
12271
12282
12181
12170
12185
12214
12202
12221
12204
12203
12218
12208
12204
12214
12202
12198
12151
12105
12101
12139
12166
12109
12108
12140
12113
12174
12187
12200
12234
12174
12104
12089
12107
12079
12157
12181
12186
12130
12122
12106
12095
12113
12179
12193
12225
12335
12403
12440
12417
12360
12334
12308
12319
12343
12349
12335
12294
12175
12071
12004
11941
11793
11677
11499
11352
11298
11310
11558
11777
11956
12086
12198
12436
12499
12490
12456
12404
12375
12356
12375
12378
12364
12378
12355
12295
12241
12242
12270
12271
12301
12289
12264
12249
12278
12235
12201
12216
12202
12203
12153
12147
12154
12166
12122
12088
12085
12078
12106
12141
12163
12169
12206
12194
12225
12256
12220
12224
12235
12262
12223
12150
12192
12181
12177
12160
12091
12003
12013
12018
11983
11963
11934
12088
12156
12242
12326
12370
12360
12336
12268
12255
12258
12193
12161
12208
12254
12223
12184
12006
11889
11769
11748
11811
11944
12036
12211
12364
12459
12484
12576
12562
12508
12455
12411
12402
12367
12318
12213
12053
11883
11827
11798
11807
11738
11629
11385
11408
11528
11736
11952
12220
12301
12349
12396
12429
12441
12372
12359
12321
12324
12377
12447
12435
12453
12425
12403
12405
12443
12401
12463
12492
12476
12417
12310
12182
12076
12064
11931
11813
11775
11760
11710
11744
11836
11951
12023
12033
12057
12236
12285
12328
12303
12224
12167
12169
12131
12101
12089
12077
12139
12218
12265
12289
12287
12208
12139
12136
12181
12151
12099
11937
11974
12056
12117
12168
12303
12373
12380
12377
12329
12310
12391
12397
12371
12354
12344
12394
12411
12399
12293
12174
12149
12171
12071
11951
11936
12000
12114
12166
12096
11937
11734
11768
11821
11770
11721
11691
11735
11797
11890
11983
12120
12306
12587
12605
12606
12529
12415
12260
12053
12042
12113
12176
12135
11806
11726
11818
11959
12094
12387
12488
12520
12519
12502
12470
12505
12576
12594
12575
12529
12424
12292
12153
12047
12006
11973
11903
11948
12026
12083
12131
12093
12016
11947
11831
11758
11734
11973
12073
12148
12190
12217
12238
12280
12332
12361
12407
12369
12337
12301
12305
12287
12239
12299
12349
12374
12388
12389
12346
12274
12167
12070
11994
11870
11876
11902
11931
11943
11927
11717
11623
11539
11475
11543
11955
12093
12152
12210
12314
12401
12544
12578
12558
12539
12554
12516
12485
12452
12427
12403
12359
12211
12141
12075
12030
12025
12117
12158
12234
12226
12210
12369
12389
12330
12305
12284
12251
12094
12041
11991
11925
11883
11892
11972
11969
11943
11985
12017
12027
12060
12088
12115
12124
12047
12001
11995
11972
11935
11979
12157
12208
12249
12311
12351
12374
12379
12336
12305
12302
12349
12367
12370
12297
12276
12249
12270
12263
12275
12265
12259
12228
12169
12154
12180
12139
12001
11856
11886
11994
12080
12191
12275
12273
12263
12225
12185
12068
12041
11973
11913
11932
12074
12197
12234
12279
12339
12382
12348
12287
12243
12213
12166
12088
12157
12185
12138
12103
12068
12028
12074
12136
12173
12188
12250
12430
12389
12321
12294
12385
12435
12374
12317
12251
12191
12091
11984
11905
11829
11846
11811
11699
11658
11632
11702
11798
11877
11917
12021
12147
12240
12277
12281
12304
12322
12278
12262
12132
12065
12063
12150
12259
12383
12368
12329
12340
12367
12390
12412
12453
12448
12419
12419
12377
12354
12339
12335
12324
12264
12098
12035
12013
11962
11904
11933
11893
11924
12019
12129
12210
12274
12157
12061
12063
12111
12070
12025
12025
12035
12012
11940
11958
11994
12073
12101
12157
12195
12200
12198
12178
12126
12196
12204
12247
12290
12325
12350
12331
12323
12293
12305
12316
12297
12278
12293
12291
12291
12289
12231
12228
12227
12244
12237
12146
12123
12128
12136
12097
11976
11997
11950
11945
12030
12073
12096
12104
12065
12016
11953
11935
11989
12071
12146
12234
12327
12320
12285
12245
12249
12258
12195
12198
12237
12234
12194
12164
12182
12183
12149
12190
12222
12249
12279
12244
12250
12262
12206
12154
12185
12206
12230
12245
12159
12096
12024
11978
11960
12034
12010
12061
12119
12114
12042
12077
12070
12012
12042
12116
12068
12070
12051
12032
12049
12151
12186
12213
12318
12353
12355
12334
12299
12302
12292
12301
12278
12253
12275
12261
12262
12162
12184
12183
12166
12172
12186
12268
12262
12229
12161
12103
12082
12109
12089
12104
12118
12116
12058
12031
12002
12022
12073
12090
12111
12122
12148
12162
12163
12120
12104
12079
12063
12131
12225
12257
12254
12278
12257
12259
12265
12285
12291
12334
12377
12399
12356
12249
12184
12152
12144
12122
12136
12145
12106
12035
11872
11868
11874
11843
11819
11937
11978
12015
12061
12065
12143
12157
12162
12097
12133
12161
12305
12332
12333
12323
12310
12338
12319
12288
12286
12335
12329
12199
12196
12180
12117
12121
12180
12214
12256
12267
12230
12183
12164
12157
12123
12144
12191
12140
12162
12232
12204
12162
12106
12074
12058
12080
12124
12162
12136
12043
12041
11997
11970
12078
12121
12140
12152
12177
12165
12118
12147
12159
12116
12150
12207
12272
12262
12275
12264
12281
12268
12247
12234
12241
12251
12266
12176
12185
12186
12170
12191
12227
12235
12238
12223
12199
12170
12204
12246
12210
12144
12100
12091
12055
12050
11994
12058
12096
12064
12070
12082
12086
12102
12092
12056
12096
12111
12067
12113
12185
12246
12269
12274
12217
12228
12240
12266
12259
12263
12290
12287
12254
12233
12150
12075
12057
12033
12040
12078
12160
12209
12160
12178
12172
12214
12271
12327
12304
12219
12192
12118
12164
12221
12237
12242
12271
12266
12228
12123
12102
12080
12091
12075
12084
12049
12020
12082
12108
12054
12036
12076
12065
12069
12126
12180
12202
12211
12062
11985
11981
12044
12109
12309
12349
12350
12305
12348
12353
12303
12315
12296
12252
12280
12351
12313
12232
12100
12068
12051
12038
12042
12070
12120
12132
12098
12058
11970
11936
11928
12033
12068
12048
12024
12019
12063
12159
12226
12277
12259
12271
12346
12321
12295
12261
12233
12233
12210
12226
12247
12273
12285
12277
12276
12311
12320
12343
12315
12321
12307
12267
12267
12310
12204
12170
12119
12043
11982
11960
11940
11907
11829
11720
11693
11731
11863
12041
12164
12253
12310
12335
12340
12370
12390
12375
12387
12383
12372
12337
12332
12248
12176
12097
12073
12047
12036
12030
11991
11924
11885
11917
12049
12075
12119
12192
12228
12241
12208
12165
12134
12163
12199
12291
12329
12350
12354
12342
12335
12339
12308
12280
12240
12120
12145
12181
12163
12114
12052
12062
12025
11994
12033
12089
12136
12123
12086
12053
12075
12131
12134
12191
12194
12191
12152
12178
12190
12202
12191
12190
12208
12194
12186
12205
12176
12117
12132
12123
12104
12138
12176
12203
12215
12198
12201
12191
12231
12256
12212
12250
12278
12309
12336
12324
12302
12294
12268
12272
12160
12143
12105
12079
12010
11948
11971
11986
11955
11986
11970
11983
11965
11937
11977
12046
12083
12083
12121
12119
12182
12271
12276
12288
12262
12266
12276
12292
12274
12278
12288
12299
12166
12136
12106
12128
12175
12255
12268
12257
12211
12132
12138
12153
12112
12129
12146
12114
12108
12086
12071
12079
12132
12141
12174
12206
12216
12210
12200
12103
12093
12090
12094
12080
12232
12259
12264
12239
12198
12149
12209
12248
12257
12263
12259
12218
12223
12196
12165
12152
12139
12095
12092
12075
12023
12044
12053
12096
12133
12112
12114
12153
12225
12235
12198
12154
12106
12139
12156
12184
12211
12185
12186
12188
12241
12261
12274
12300
12277
12223
12203
12197
12203
12176
12087
12079
12047
12026
12071
12090
12117
12161
12148
12107
12115
12165
12169
12150
12177
12105
12079
12037
12031
12060
12079
12015
11948
11951
12008
12080
12213
12176
12202
12217
12196
12230
12306
12332
12354
12379
12333
12288
12287
12290
12279
12309
12299
12245
12250
12245
12236
12230
12224
12188
12136
12063
12051
11989
11897
11873
11917
11947
11978
12101
12162
12198
12222
12244
12191
12218
12189
12168
12189
12234
12248
12232
12269
12253
12202
12168
12124
12084
12028
12048
12080
12099
12030
12011
12084
12104
12187
12258
12292
12315
12300
12165
12183
12240
12255
12227
12236
12191
12188
12169
12192
12208
12219
12224
12181
12172
12172
12193
12169
12115
12118
12066
12038
12089
12151
12208
12257
12269
12185
12199
12219
12223
12195
12176
12197
12231
12248
12210
12169
12156
12158
12157
12117
12091
12079
12093
12100
12078
12105
12112
12124
12179
12197
12209
12225
12203
12191
12205
12220
12245
12231
12247
12204
12149
12107
12107
12087
12104
12099
12089
12099
12122
12173
12187
12142
12112
12102
12071
12085
12096
12091
12086
12095
12091
12098
12131
12154
12155
12199
12188
12218
12249
12308
12351
12356
12355
12305
12248
12193
12154
12118
12071
12035
12073
12114
12114
12154
12183
12169
12137
12041
12045
12110
12158
12182
12261
12223
12225
12232
12274
12293
12254
12255
12251
12213
12157
12139
12137
12126
12072
12056
12009
12039
12049
12111
12134
12192
12169
12138
12146
12191
12224
12259
12269
12275
12286
12273
12255
12247
12195
12153
12102
12059
12091
12097
12110
12077
12061
12110
12162
12172
12190
12174
12189
12168
12145
12116
12122
12159
12211
12231
12210
12185
12180
12175
12160
12189
12188
12189
12155
12204
12263
12280
12282
12188
12175
12110
12094
12095
12126
12140
12187
12160
12095
12042
12054
12077
12119
12140
12153
12176
12122
12102
12114
12169
12236
12220
12202
12192
12198
12171
12135
12131
12133
12113
12111
12215
12236
12241
12233
12185
12166
12198
12247
12233
12282
12257
12249
12244
12170
12132
12133
12162
12142
12113
12139
12174
12171
12142
12087
12025
12046
12073
12101
12192
12290
12250
12188
12155
12120
12191
12161
12144
12115
12089
12172
12187
12186
12197
12135
12067
11966
11986
12032
12102
12133
12142
12163
12167
12173
12203
12252
12317
12305
12243
12179
12104
12194
12198
12204
12200
12201
12186
12216
12186
12176
12172
12200
12190
12163
12137
12108
12120
12120
12062
12034
12039
12067
12112
12179
12224
12230
12197
12187
12234
12263
12256
12269
12260
12225
12234
12216
12170
12170
12184
12155
12107
12116
12123
12147
12161
12131
12129
12135
12065
12070
12134
12194
12220
12207
12205
12210
12241
12194
12160
12159
12146
12135
12148
12153
12138
12152
12145
12154
12156
12190
12221
12234
12154
12114
12092
12074
12055
12147
12170
12200
12154
12126
12122
12151
12158
12100
12107
12127
12184
12230
12248
12238
12232
12222
12199
12157
12107
12092
12089
11968
11976
12027
12060
12055
12201
12214
12244
12248
12220
12205
12277
12290
12289
12316
12319
12259
12240
12245
12210
12185
12204
12106
12017
11976
11998
12026
12041
12045
12061
12070
12065
12129
12163
12180
12214
12219
12194
12170
12218
12240
12217
12260
12269
12269
12272
12258
12239
12241
12218
12195
12178
12171
12176
12144
12093
12098
12124
12108
12095
12115
12145
12142
12128
12062
12067
12111
12166
12186
12218
12239
12226
12235
12189
12153
12201
12246
12250
12225
12200
12166
12113
12066
12038
12069
12048
12073
12154
12199
12249
12278
12214
12116
12104
12090
12072
12098
12218
12216
12200
12188
12187
12203
12259
12259
12215
12167
12158
12147
12127
12089
12109
12121
12141
12142
12182
12207
12208
12214
12143
12151
12159
12175
12148
12195
12169
12160
12147
12162
12174
12230
12214
12186
12168
12158
12166
12150
12120
12119
12123
12129
12094
12180
12230
12248
12237
12157
12092
12137
12188
12199
12140
12128
12140
12137
12167
12162
12195
12131
12083
12055
12070
12103
12105
12108
12037
12050
12063
12095
12139
12225
12239
12269
12218
12179
12218
12278
12267
12271
12293
12282
12285
12280
12277
12218
12238
12244
12236
12244
12240
12235
12203
12127
12076
12078
12017
12002
12035
12087
12085
12041
11980
11954
11988
12000
11990
12028
12075
12123
12169
12227
12273
12305
12306
12276
12228
12232
12250
12247
12241
12172
12154
12183
12201
12238
12302
12304
12282
12253
12214
12183
12203
12199
12210
12209
12218
12177
12156
12096
12054
12050
12046
12054
12034
12120
12153
12173
12130
12112
12111
12151
12171
12216
12242
12200
12156
12102
12054
12063
12084
12077
12166
12244
12289
12271
12316
12263
12266
12252
12221
12194
12148
12133
12121
12076
12030
12068
12111
12117
12132
12158
12164
12161
12108
12090
12100
12148
12138
12176
12206
12248
12264
12267
12239
12224
12222
12199
12179
12201
12191
12203
12176
12087
12149
12144
12127
12139
12183
12206
12201
12166
12124
12100
12146
12202
12199
12182
12206
12234
12201
12184
12167
12164
12144
12118
12090
12131
12168
12168
12113
12076
12092
12098
12097
12150
12189
12153
12165
12138
12124
12153
12179
12131
12149
12187
12193
12219
12246
12271
12263
12258
12233
12222
12220
12201
12213
12200
12121
12126
12121
12085
12110
12132
12188
12145
12070
12027
12018
12104
12090
12106
12123
12130
12132
12142
12111
12117
12099
12114
12129
12160
12235
12281
12312
12252
12236
12183
12129
12160
12203
12214
12185
12140
12050
12006
12076
12128
12130
12186
12219
12235
12191
12181
12188
12220
12222
12223
12235
12255
12235
12238
12144
12097
12104
12092
12062
12110
12171
12216
12239
12220
12214
12198
12242
12227
12230
12263
12245
12199
12196
12218
12210
12200
12139
12103
12099
12106
12114
12052
12013
12028
12037
12010
12002
12052
12093
12122
12117
12075
12060
12094
12176
12270
12306
12281
12254
12271
12264
12269
12297
12273
12239
12195
12166
12172
12182
12116
12103
12106
12073
12038
12122
12153
12179
12194
12132
12070
12061
12059
12068
12149
12191
12131
12153
12194
12221
12207
12175
12155
12128
12128
12159
12199
12165
12181
12174
12181
12183
12234
12268
12267
12231
12219
12163
12185
12191
12182
12187
12209
12198
12192
12203
12228
12198
12166
12140
12120
12123
12131
12101
12075
12036
12049
12075
12132
12199
12253
12237
12251
12248
12187
12200
12207
12203
12128
12127
12158
12185
12176
12187
12206
12237
12227
12228
12213
12215
12225
12218
12126
12140
12113
12057
12062
12101
12129
12167
12199
12164
12135
12125
12133
12136
12155
12211
12232
12211
12203
12127
12135
12173
12149
12114
12109
12129
12134
12068
12025
12019
12019
12038
12090
12165
12264
12309
12322
12293
12306
12301
12250
12203
12231
12280
12272
12296
12295
12194
12132
12078
12025
11951
11945
11941
11929
11851
11849
11935
12042
12111
12214
12265
12283
12299
12253
12280
12295
12313
12291
12284
12311
12293
12275
12283
12227
12182
12200
12171
12155
12125
12169
12181
12147
12106
12100
12134
12151
12187
12249
12275
12298
12240
12231
12213
12233
12265
12251
12204
12206
12197
12152
12118
12073
12036
11950
11859
11823
11917
11992
12034
12019
12070
12090
12107
12174
12226
12245
12232
12192
12155
12142
12191
12207
12256
12292
12317
12308
12285
12273
12241
12260
12273
12251
12227
12257
12232
12225
12197
12109
12138
12148
12140
12198
12222
12199
12180
12111
12103
12115
12080
12001
12014
12057
12129
12154
12172
12131
12089
12081
12044
12003
12026
12065
12078
12084
12002
12029
12140
12180
12232
12288
12305
12330
12285
12259
12245
12231
12221
12288
12302
12286
12289
12272
12221
12187
12180
12150
12149
12187
12211
12211
12179
12111
12064
12029
12037
12022
12055
12116
12142
12111
12052
12064
12107
12115
12183
12244
12281
12282
12254
12140
12140
12143
12196
12184
12169
12194
12212
12196
12182
12136
12162
12180
12179
12241
12272
12262
12250
12184
12170
12190
12182
12148
12186
12164
12197
12209
12185
12149
12145
12137
12103
12048
11993
11970
12000
12023
12048
12147
12172
12197
12220
12261
12303
12295
12276
12181
12144
12161
12070
12063
12155
12190
12179
12121
12097
12067
12091
12083
12023
12041
12118
12172
12191
12177
12119
12117
12107
12137
12178
12251
12277
12254
12231
12217
12236
12223
12237
12282
12295
12274
12201
12150
12143
12161
12196
12223
12164
12168
12189
12203
12187
12043
12036
12035
12043
12077
12181
12230
12236
12188
12153
12164
12163
12204
12225
12235
12200
12182
12171
12147
12144
12158
12193
12145
12159
12175
12168
12170
12069
12080
12064
12063
12073
12123
12150
12205
12204
12153
12132
12160
12176
12184
12236
12221
12306
12293
12242
12215
12206
12218
12218
12195
12189
12188
12171
12103
12085
12095
12052
12098
12142
12230
12226
12207
12171
12143
12122
12138
12143
12166
12194
12237
12229
12216
12210
12212
12195
12093
12060
12024
11983
11948
12000
11965
11981
11946
11972
12017
12209
12228
12240
12237
12178
12226
12263
12264
12247
12267
12308
12271
12279
12247
12236
12228
12186
12163
12157
12143
12142
12168
12139
12129
12122
12082
12139
12209
12241
12232
12224
12169
12133
12146
12162
12174
12210
12164
12181
12168
12140
12136
12142
12117
12122
12128
12153
12178
12173
12140
12080
12082
12064
12066
12176
12201
12201
12203
12181
12161
12182
12177
12173
12195
12257
12249
12240
12250
12217
12190
12214
12203
12171
12142
12162
12167
12155
12059
12067
12101
12107
12114
12180
12200
12225
12188
12064
12055
12070
12066
12088
12195
12245
12244
12231
12226
12234
12230
12272
12247
12185
12141
12160
12144
12074
12041
12054
12099
12103
12122
12159
12181
12179
12157
12149
12189
12194
12154
12169
12195
12213
12242
12280
12255
12233
12221
12179
12171
12172
12186
12200
12159
12106
12115
12106
12156
12189
12224
12225
12213
12119
12065
12032
12093
12149
12167
12235
12230
12191
12152
12138
12137
12193
12200
12192
12183
12196
12200
12215
12137
12090
12114
12103
12127
12182
12193
12176
12121
12073
12066
12068
12068
12063
12128
12175
12129
12100
12110
12195
12229
12276
12278
12197
12128
12141
12167
12177
12116
12076
12103
12111
12188
12237
12239
12219
12201
12167
12170
12192
12188
12224
12225
12257
12292
12275
12248
12235
12202
12208
12186
12165
12174
12164
12152
12086
12103
12123
12165
12185
12212
12232
12225
12207
12186
12181
12157
12156
12138
12151
12169
12161
12098
12046
12039
12070
12078
12035
12006
12076
12148
12172
12130
12058
12095
12126
12190
12219
12258
12287
12269
12224
12190
12181
12214
12245
12273
12275
12268
12246
12222
12220
12193
12208
12204
12191
12204
12224
12209
12173
12106
12117
12148
12143
12168
12168
12173
12172
12147
12120
12104
12120
12034
12060
12111
12132
12147
12184
12172
12145
12118
12108
12107
12159
12157
12138
12106
12087
12096
12116
12123
12127
12180
12226
12254
12243
12190
12179
12222
12241
12225
12262
12234
12262
12278
12220
12168
12209
12207
12190
12120
12127
12132
12114
12112
12073
12101
12100
12106
12142
12194
12220
12219
12188
12159
12193
12216
12146
12119
12123
12074
12039
12096
12150
12123
12142
12145
12145
12165
12218
12228
12219
12165
12158
12160
12157
12154
12184
12184
12181
12168
12140
12133
12196
12169
12171
12167
12178
12197
12227
12207
12195
12180
12195
12163
12160
12191
12161
12102
12071
11958
12008
12026
12071
12142
12267
12261
12230
12162
12129
12147
12151
12139
12211
12251
12239
12275
12267
12233
12161
12197
12148
12151
12172
12167
12114
12120
12083
12060
12088
12105
12123
12188
12195
12204
12190
12151
12155
12183
12179
12181
12193
12214
12224
12229
12211
12230
12218
12176
12130
12110
12140
12144
12129
12100
12071
12067
12069
12096
12160
12201
12203
12204
12134
12119
12188
12215
12226
12277
12280
12254
12262
12229
12209
12194
12214
12168
12142
12152
12162
12166
12077
11995
11960
11951
11967
12074
12103
12147
12135
12091
12024
12029
12081
12110
12148
12192
12266
12276
12296
12289
12256
12255
12238
12237
12230
12243
12229
12153
12097
12107
12125
12105
12149
12192
12192
12193
12195
12137
12140
12150
12161
12163
12186
12219
12214
12216
12211
12196
12162
12182
12161
12142
12152
12165
12165
12092
12078
12089
12109
12129
12172
12214
12213
12236
12221
12148
12208
12225
12184
12204
12219
12178
12169
12146
12152
12153
12131
12092
12072
12083
12127
12179
12151
12073
12077
12088
12106
12166
12185
12183
12177
12177
12115
12116
12152
12177
12171
12236
12246
12250
12263
12270
12256
12210
12188
12148
12124
12143
12174
12165
12078
12061
12047
12056
12065
12145
12188
12206
12202
12128
12144
12143
12168
12190
12227
12208
12179
12229
12242
12228
12181
12200
12182
12143
12152
12170
12165
12099
12078
12066
12088
12117
12164
12194
12190
12211
12175
12176
12206
12204
12239
12291
12270
12269
12260
12222
12220
12197
12164
12126
12082
11984
11902
11897
11891
11874
11927
12037
12092
12175
12227
12259
12237
12189
12167
12180
12251
12274
12233
12243
12247
12220
12223
12250
12241
12228
12217
12201
12200
12172
12144
12145
12135
12103
12106
12092
12086
12152
12164
12188
12205
12177
12173
12175
12189
12181
12195
12226
12226
12198
12201
12178
12182
12179
12135
12075
12061
12092
12081
12123
12079
12068
12093
12078
12127
12161
12161
12221
12164
12140
12137
12142
12177
12214
12204
12216
12254
12229
12201
12204
12193
12198
12195
12168
12181
12187
12164
12137
12116
12095
12095
12106
12114
12138
12196
12176
12157
12162
12148
12167
12181
12197
12208
12219
12216
12228
12205
12219
12200
12173
12163
12154
12144
12163
12149
12052
12098
12075
12089
12104
12131
12206
12207
12157
12112
12135
12183
12171
12214
12220
12212
12204
12210
12232
12225
12208
12191
12147
12151
12140
12131
12125
12102
12108
12063
12025
12095
12166
12204
12222
12195
12139
12141
12154
12145
12162
12187
12203
12170
12194
12213
12210
12233
12228
12211
12142
12129
12161
12163
12147
12059
12103
12098
12077
12152
12187
12220
12200
12152
12116
12123
12153
12169
12236
12224
12217
12210
12218
12222
12212
12201
12187
12132
12138
12165
12149
12131
12067
12067
12070
12075
12098
12171
12218
12211
12153
12126
12140
12161
12154
12196
12221
12243
12251
12230
12203
12167
12194
12210
12145
12149
12164
12143
12128
12062
12069
12060
12074
12094
12127
12189
12212
12193
12159
12132
12194
12194
12178
12228
12220
12234
12264
12207
12181
12151
12177
12146
12113
12151
12181
12163
12076
12078
12082
12054
12069
12114
12209
12206
12188
12123
12100
12195
12196
12171
12220
12236
12239
12217
12219
12236
12229
12212
12161
12127
12127
12136
12151
12097
12057
12072
12093
12051
12069
12171
12183
12219
12198
12121
12198
12215
12161
12163
12198
12188
12210
12242
12245
12227
12227
12198
12143
12119
12162
12184
12124
12055
12049
12055
12065
12054
12143
12173
12181
12196
12174
12147
12142
12129
12147
12204
12222
12247
12221
12239
12237
12203
12191
12179
12183
12170
12137
12137
12075
12062
12058
12070
12079
12136
12149
12188
12205
12180
12097
12109
12148
12153
12166
12200
12270
12247
12255
12252
12235
12209
12190
12173
12178
12190
12168
12112
12077
12067
12087
12118
12175
12167
12167
12181
12207
12142
12119
12179
12184
12156
12184
12236
12175
12207
12204
12231
12191
12177
12182
12169
12162
12186
12172
12104
12088
12098
12090
12046
12158
12191
12186
12184
12154
12147
12154
12164
12169
12179
12212
12201
12173
12218
12217
12204
12177
12154
12155
12147
12147
12177
12139
12077
12065
12042
12062
12113
12174
12176
12187
12159
12117
12148
12187
12166
12146
12238
12297
12244
12216
12222
12185
12190
12179
12167
12153
12164
12116
12135
12074
12101
12121
12102
12087
12168
12181
12183
12198
12124
12101
12160
12170
12174
12207
12243
12240
12215
12198
12207
12186
12194
12181
12160
12164
12139
12126
12124
12053
12055
12091
12093
12155
12177
12182
12181
12157
12122
12141
12185
12180
12217
12212
12182
12237
12246
12236
12185
12186
12168
12129
12134
12158
12135
12082
12058
12092
12085
12105
12132
12161
12195
12195
12176
12129
12131
12182
12206
12177
12211
12224
12234
12238
12238
12191
12209
12203
12185
12170
12163
12151
12149
12107
12040
12052
12077
12086
12148
12168
12177
12148
12120
12122
12153
12185
12182
12202
12200
12189
12218
12227
12204
12208
12210
12186
12163
12130
12163
12161
12161
12099
12033
12065
12084
12112
12158
12186
12185
12141
12094
12173
12192
12167
12215
12245
12231
12199
12228
12247
12205
12198
12202
12163
12137
12141
12143
12150
12133
12109
12075
12054
12073
12168
12201
12197
12182
12130
12117
12151
12164
12165
12182
12232
12228
12216
12224
12202
12182
12192
12199
12160
12132
12146
12146
12173
12089
12115
12089
12049
12117
12162
12198
12181
12156
12155
12176
12169
12180
12222
12194
12197
12219
12210
12184
12189
12182
12184
12157
12148
12171
12151
12092
12072
12101
12092
12092
12081
12130
12193
12202
12160
12114
12097
12160
12212
12210
12238
12216
12230
12232
12222
12201
12193
12193
12159
12157
12154
12161
12128
12073
12119
12096
12076
12083
12150
12194
12205
12182
12159
12153
12142
12209
12173
12218
12220
12228
12208
12203
12213
12199
12198
12158
12144
12156
12160
12144
12138
12046
12056
12077
12061
12105
12201
12184
12204
12186
12158
12137
12174
12177
12182
12217
12226
12191
12183
12196
12149
12178
12157
12148
12150
12150
12131
12133
12079
12076
12080
12078
12069
12168
12210
12213
12188
12156
12119
12174
12176
12158
12196
12224
12214
12223
12242
12226
12203
12204
12193
12147
12122
12147
12186
12101
12109
12112
12068
12076
12117
12155
12183
12203
12195
12166
12181
12203
12175
12194
12214
12258
12221
12227
12201
12203
12190
12174
12154
12118
12133
12160
12153
12073
12069
12073
12080
12081
12174
12193
12203
12178
12160
12138
12175
12172
12165
12238
12253
12216
12234
12202
12198
12199
12175
12157
12149
12156
12169
12152
12080
12117
12103
12070
12078
12163
12192
12212
12204
12177
12118
12155
12172
12142
12148
12229
12215
12168
12200
12217
12183
12210
12197
12179
12158
12182
12161
12121
12080
12125
12119
12091
12127
12192
12180
12173
12189
12147
12143
12141
12172
12150
12166
12256
12232
12223
12200
12173
12164
12158
12127
12148
12166
12149
12141
12093
12085
12061
12057
12085
12155
12178
12191
12168
12148
12179
12180
12175
12148
12184
12217
12237
12225
12229
12198
12194
12178
12132
12109
12158
12137
12078
12063
12047
12086
12082
12105
12141
12177
12203
12244
12168
12128
12159
12192
12161
12178
12227
12216
12210
12184
12183
12192
12191
12170
12159
12153
12123
12116
12157
12075
12083
12128
12121
12144
12165
12198
12204
12168
12146
12189
12176
12155
12128
12196
12215
12210
12215
12227
12176
12197
12229
12171
12142
12151
12137
12119
12077
12089
12142
12053
12075
12125
12195
12201
12182
12162
12139
12159
12194
12175
12169
12217
12235
12190
12193
12222
12212
12193
12143
12150
12139
12148
12166
12127
12064
12088
12107
12069
12114
12179
12204
12177
12159
12142
12212
12209
12168
12222
12215
12229
12216
12245
12200
12175
12211
12203
12171
12130
12168
12157
12141
12092
12052
12067
12084
12102
12186
12175
12178
12180
12183
12144
12131
12154
12184
12195
12189
12229
12224
12155
12183
12214
12206
12166
12140
12156
12087
12111
12172
12097
12103
12079
12075
12131
12184
12200
12154
12128
12131
12126
12144
12181
12238
12270
12250
12227
12248
12192
12156
12204
12187
12125
12167
12154
12122
12115
12059
12123
12069
12010
12056
12144
12228
12180
12182
12148
12137
12173
12187
12222
12213
12241
12234
12185
12222
12238
12223
12172
12160
12168
12166
12135
12144
12142
12073
12030
12066
12109
12145
12203
12202
12171
12112
12097
12153
12155
12148
12211
12245
12241
12197
12189
12155
12222
12220
12199
12181
12178
12137
12145
12137
12096
12113
12073
12095
12108
12151
12210
12213
12198
12177
12167
12186
12212
12224
12176
12179
12189
12218
12181
12163
12175
12206
12142
12142
12183
12172
12151
12051
12096
12094
12071
12090
12111
12188
12197
12162
12136
12171
12204
12203
12214
12213
12221
12218
12224
12181
12160
12191
12220
12104
12152
12181
12152
12113
12122
12094
12062
12046
12102
12145
12181
12189
12195
12171
12124
12197
12192
12176
12246
12235
12209
12194
12202
12197
12198
12217
12197
12171
12138
12112
12132
12156
12104
12085
12061
12054
12068
12184
12190
12202
12175
12142
12124
12150
12169
12172
12220
12242
12219
12229
12222
12176
12188
12174
12145
12177
12191
12180
12143
12061
12098
12083
12039
12048
12160
12196
12201
12218
12165
12135
12180
12190
12211
12212
12195
12218
12234
12226
12194
12202
12171
12127
12141
12160
12189
12172
12128
12069
12066
12053
12094
12143
12181
12181
12210
12169
12119
12168
12172
12199
12211
12249
12221
12156
12206
12225
12218
12215
12177
12151
12143
12154
12177
12141
12071
12052
12098
12080
12086
12134
12177
12207
12202
12152
12121
12139
12160
12175
12227
12237
12244
12194
12189
12211
12209
12192
12150
12159
12162
12153
12155
12109
12081
12109
12088
12081
12125
12151
12158
12192
12152
12142
12173
12172
12151
12187
12241
12222
12191
12193
12214
12182
12194
12171
12145
12169
12182
12143
12136
12080
12058
12087
12099
12099
12151
12206
12198
12171
12117
12164
12171
12177
12170
12225
12217
12225
12216
12195
12160
12181
12162
12159
12151
12175
12178
12172
12141
12080
12063
12137
12145
12170
12190
12210
12197
12141
12122
12184
12182
12154
12217
12225
12219
12196
12212
12204
12214
12217
12212
12166
12140
12194
12193
12144
12080
12078
12090
12098
12118
12159
12184
12170
12146
12135
12154
12188
12183
12197
12210
12202
12234
12211
12201
12181
12216
12189
12150
12151
12133
12117
12118
12067
12065
12126
12098
12116
12169
12200
12214
12168
12135
12175
12183
12169
12200
12223
12225
12212
12197
12225
12174
12184
12192
12189
12169
12149
12150
12149
12135
12097
12110
12127
12090
12158
12187
12176
12173
12133
12132
12174
12192
12184
12200
12177
12231
12194
12180
12189
12187
12185
12169
12135
12166
12149
12150
12167
12118
12119
12079
12068
12152
12170
12184
12208
12154
12129
12172
12187
12181
12192
12203
12204
12178
12196
12215
12199
12198
12178
12139
12133
12129
12146
12150
12146
12120
12091
12097
12085
12124
12137
12195
12172
12144
12158
12170
12149
12195
12244
12219
12184
12171
12221
12187
12198
12208
12178
12164
12153
12158
12136
12093
12049
12088
12100
12100
12130
12158
12178
12180
12148
12125
12159
12197
12180
12222
12203
12208
12230
12238
12172
12183
12199
12165
12143
12175
12171
12134
12120
12091
12080
12061
12096
12105
12148
12198
12210
12200
12143
12153
12168
12177
12183
12226
12224
12226
12195
12213
12225
12218
12188
12169
12167
12143
12112
12125
12134
12100
12103
12101
12081
12130
12207
12200
12193
12156
12131
12131
12189
12164
12236
12241
12247
12236
12236
12185
12181
12195
12192
12136
12182
12159
12128
12099
12123
12129
12094
12026
12087
12167
12177
12210
12166
12138
12172
12180
12189
12199
12214
12223
12198
12207
12206
12172
12200
12177
12143
12162
12160
12149
12144
12122
12106
12115
12113
12100
12142
12164
12176
12171
12117
12112
12198
12171
12155
12209
12199
12202
12180
12197
12180
12205
12181
12146
12156
12151
12155
12153
12110
12083
12078
12093
12101
12120
12182
12215
12223
12202
12143
12168
12176
12168
12177
12183
12189
12213
12219
12208
12210
12213
12185
12191
12170
12192
12161
12086
12076
12072
12072
12072
12068
12173
12199
12204
12186
12151
12146
12177
12204
12162
12167
12178
12188
12245
12204
12223
12214
12178
12183
12176
12139
12141
12176
12109
12085
12091
12079
12118
12186
12203
12194
