12171
12136
12080
12089
12110
12100
12130
12174
12171
12170
12179
12101
12137
12176
12183
12168
12183
12195
12218
12229
12202
12223
12217
12213
12201
12185
12201
12200
12172
12102
12081
12093
12085
12125
12139
12161
12168
12178
12144
12140
12160
12171
12161
12174
12199
12226
12251
12243
12230
12213
12185
12163
12163
12161
12171
12169
12108
12068
12126
12118
12083
12127
12149
12166
12186
12150
12124
12164
12171
12160
12149
12202
12205
12203
12220
12205
12183
12196
12172
12167
12155
12168
12157
12140
12100
12078
12083
12125
12116
12155
12176
12219
12185
12173
12173
12190
12201
12180
12200
12188
12186
12200
12224
12155
12158
12138
12132
12114
12124
12163
12151
12091
12067
12095
12095
12128
12205
12232
12220
12198
12136
12118
12139
12183
12182
12219
12219
12194
12161
12192
12249
12206
12203
12186
12154
12138
12142
12153
12150
12085
12039
12058
12032
12067
12100
12109
12170
12146
12135
12119
12169
12185
12190
12186
12187
12207
12214
12210
12222
12222
12212
12206
12185
12183
12194
12176
12114
12054
12098
12108
12139
12176
12191
12211
12189
12151
12143
12181
12221
12236
12247
12239
12229
12227
12249
12204
12179
12176
12161
12123
12103
12145
12151
12086
11988
12003
12038
12081
12090
12146
12180
12244
12193
12194
12204
12208
12284
12311
12310
12289
12242
12234
12239
12244
12228
12207
12167
12117
12103
12099
12105
12047
12072
12066
12038
12021
12078
12121
12146
12134
12092
12065
12078
12118
12162
12238
12264
12274
12253
12222
12241
12237
12213
12208
12170
12201
12220
12190
12135
12100
12100
12120
12120
12135
12182
12203
12203
12191
12161
12179
12176
12162
12175
12175
12212
12232
12245
12225
12201
12207
12198
12157
12162
12175
12183
12158
12093
12089
12126
12095
12144
12193
12210
12153
12102
12020
11998
12087
12092
12135
12180
12189
12176
12225
12215
12210
12215
12200
12188
12190
12204
12209
12197
12096
12094
12098
12107
12094
12144
12177
12195
12209
12162
12138
12228
12261
12225
12237
12231
12229
12279
12247
12238
12223
12215
12168
12125
12137
12157
12129
12129
12047
12074
12047
11999
11985
11998
12016
11993
12007
12007
12141
12192
12187
12230
12268
12283
12257
12261
12243
12242
12243
12244
12221
12228
12249
12239
12242
12154
12124
12147
12169
12141
12194
12186
12143
12098
12044
12116
12178
12190
12191
12198
12197
12237
12276
12262
12238
12243
12190
12164
12157
12210
12260
12300
12189
12169
12166
12083
12049
11983
11981
11955
11995
12065
12128
12147
12107
12026
12021
12032
12113
12122
12141
12138
12127
12175
12164
12152
12156
12186
12186
12158
12103
12141
12116
12129
12170
12209
12229
12237
12255
12235
12318
12373
12408
12384
12357
12298
12314
12325
12316
12287
12196
12145
12105
12042
12016
11979
11865
11717
11715
11705
11699
11843
11933
12044
12137
12172
12202
12304
12346
12371
12365
12419
12465
12491
12493
12484
12413
12261
12217
12135
12026
12010
12038
11952
11839
11817
11868
11925
12033
12114
12203
12222
12198
12102
12102
12137
12183
12183
12199
12328
12390
12373
12374
12358
12350
12281
12216
12137
12049
12049
12104
12093
12057
12103
12171
12205
12202
12249
12235
12198
12108
11978
12022
12064
12090
12092
12207
12220
12226
12260
12251
12238
12256
12260
12239
12211
12221
12229
12183
12118
12094
12093
12108
12150
12173
12193
12179
12197
12170
12214
12259
12257
12228
12339
12332
12307
12282
12208
12103
12140
12166
12212
12242
12260
12240
12212
12175
12119
12130
12182
12210
12203
12228
12132
12017
11847
11918
12016
12070
12127
12217
12244
12241
12191
12199
12170
12137
12166
12271
12334
12374
12467
12430
12324
12216
12230
12224
12195
12203
12235
12204
12138
11915
11782
11738
11814
11906
12054
12017
12026
12002
11960
11928
11905
12021
12152
12227
12256
12333
12355
12371
12325
12287
12279
12314
12270
12272
12282
12338
12359
12245
12126
12023
11934
11701
11728
11842
12012
12139
12198
12196
12229
12261
12290
12293
12329
12339
12297
12248
12118
12052
11953
11940
11974
11965
11999
12100
12157
12198
12237
12292
12326
12286
12273
12318
12326
12347
12422
12421
12403
12392
12378
12386
12414
12443
12441
12405
12306
12067
11956
11920
11944
11915
11779
11759
11752
11769
11843
11945
12032
12062
12044
12076
12102
12155
12210
12253
12302
12313
12273
12272
12264
12272
12286
12254
12289
12255
12244
12275
12271
12314
12283
12260
12220
12235
12268
12213
12243
12272
12280
12336
12345
12296
12244
12187
12139
12121
12113
12150
12169
12145
12059
12121
12179
12227
12143
12073
11908
11820
11727
11662
11679
11762
11786
11718
11713
11696
11721
11939
12079
12227
12336
12413
12482
12537
12594
12622
12647
12639
12585
12519
12479
12434
12442
12465
12474
12448
12347
12225
12112
11804
11598
11499
11475
11512
11773
11880
11982
12054
12133
12131
12088
12119
12165
12192
12224
12201
12187
12226
12263
12361
12583
12609
12603
12549
12497
12461
12446
12406
12393
12401
12372
12458
12478
12383
12196
11987
11740
11571
11539
11450
11355
11315
11534
11696
11858
11980
12089
12189
12365
12393
12394
12354
12350
12353
12364
12367
12421
12441
12459
12492
12482
12460
12456
12460
12493
12545
12629
12659
12648
12434
12360
12302
12201
12111
12025
11813
11695
11587
11575
11611
11676
11598
11483
11507
11554
11652
11702
11809
11931
12055
12190
12390
12441
12495
12557
12560
12374
12204
12023
12014
12069
12157
12343
12390
12422
12438
12437
12514
12535
12541
12503
12550
12642
12667
12614
12473
12337
12210
12028
11860
11681
11532
11430
11417
11346
11325
11284
11236
11304
11712
11953
12192
12354
12460
12723
12865
12921
12887
12839
12813
12768
12758
12777
12757
12719
12647
12614
12546
12446
12330
12284
12223
12125
12057
11977
11911
11666
11573
11548
11524
11514
11647
11712
11655
11517
11429
11399
11396
11497
11626
11792
11922
12179
12275
12400
12533
12647
12824
12869
12811
12851
12820
12827
13002
13055
12996
12876
12693
12261
12092
11964
11898
11844
11835
11753
11691
11622
11586
11548
11649
11636
11595
11565
11589
11684
11923
11998
12087
12218
12319
12521
12608
12663
12702
12712
12658
12675
12744
12743
12678
12579
12372
12308
12271
12230
12161
11988
11899
11780
11664
11609
11675
11917
11968
11983
12056
12112
12193
12261
12336
12372
12418
12491
12559
12603
12568
12468
12330
12294
12412
12545
12628
12501
12066
11919
11875
11875
11820
11778
11871
11950
11977
11909
11886
11572
11546
11576
11551
11544
11631
11831
11988
12253
12479
12598
12686
12654
12565
12451
12356
12103
12063
12025
11996
12051
12199
12507
12511
12437
12248
12081
11844
11760
11754
11817
11892
11948
12111
12230
12354
12419
12344
12173
12008
11881
11828
11839
11852
11860
11961
12000
12055
12107
12250
12329
12340
12310
12368
12410
12429
12448
12459
12490
12534
12512
12421
12366
12304
12246
12277
12324
12378
12429
12459
12411
12383
12397
12377
12345
12315
12287
12280
12262
12205
12135
12105
12058
12104
12181
12212
12242
12061
11896
11725
11649
11711
11885
11945
11913
11900
11854
11844
12011
12114
12267
12456
12585
12488
12393
12296
12213
12140
12141
12107
12146
12264
12423
12530
12382
12273
12090
11821
11523
11073
10976
10899
10852
10878
10982
11489
11734
11906
12034
12205
12711
12915
13107
13228
13197
12998
12894
12670
12461
12375
12323
12382
12369
12293
12265
12250
12096
12040
12110
12161
12168
12234
12425
12465
12515
12545
12506
12310
12253
12237
12251
12140
11939
11714
11681
11706
11798
11906
12088
12119
12074
12000
11918
11956
11969
12030
12034
12025
12032
12002
11974
12014
12108
12178
12275
12288
12305
12378
12445
12481
12578
12539
12505
12569
12690
12747
12726
12663
12616
12643
12699
12624
12533
12487
12404
12326
12188
12100
11997
11858
11805
11582
11472
11424
11420
11379
11376
11482
11522
11530
11560
11700
12143
12352
12477
12474
12424
12376
12462
12507
12583
12563
12563
12528
12566
12511
12358
12193
11892
11715
11666
11701
11866
12070
12278
12385
12422
12481
12579
12802
12760
12653
12433
12139
11859
11464
11267
11121
10964
10895
10958
11103
11272
11493
11801
12198
12291
12444
12744
13059
13302
13378
13301
13276
13260
13175
13140
13031
12842
12633
12442
12296
12158
12163
11942
11553
11090
10167
9793
9541
9439
9541
9928
10415
10928
11375
11799
12645
12952
13067
13110
13098
12988
12907
12894
12906
12936
12986
13162
13320
13383
13352
13276
13071
12961
12911
12861
12800
12719
12560
12475
12399
12285
12184
12088
12091
11995
11855
11753
11654
11603
11627
11602
11578
11540
11329
11123
10992
11055
11185
11715
11964
12182
12371
12503
12588
12653
12643
12669
12669
12668
12695
12673
12672
12660
12805
13050
13155
13170
13161
13052
12871
12403
12152
12000
11951
11912
11784
11710
11590
11511
11424
11311
11082
11158
11310
11454
11530
11726
11786
11811
11911
12130
12364
12706
12800
12934
12935
12900
12791
12655
12517
12280
12057
11525
11247
10850
10486
10363
10409
10520
10550
10729
11029
11334
12306
12837
13291
13532
13502
13476
13235
12968
12669
12351
12003
11777
11811
11905
12041
12141
12241
12319
12347
12340
12306
12237
12165
12109
12087
12027
12002
12040
12124
12208
12273
12324
12329
12375
12487
12631
12810
12882
13067
13149
13242
13263
13247
13233
13066
12979
12936
12876
12758
12535
12411
12343
12299
12191
11916
11755
11554
11341
11110
10731
10140
10077
10114
10256
10445
11230
11715
12073
12339
12542
12786
13174
13369
13507
13695
13829
13922
14165
14377
14344
14097
13728
12863
12367
11881
11462
11137
10626
10466
10469
10501
10529
10360
10335
10329
10337
10370
10406
10493
10734
11139
11569
11930
12570
12699
12807
12962
13106
13280
13450
13477
13421
13342
13184
12859
12765
12667
12604
12637
12762
12820
12850
12818
12730
12540
11946
11543
11154
10806
10615
10566
10663
10798
10977
11268
11635
12528
12970
13237
13373
13464
13314
13276
13228
13126
13002
12909
12852
12811
12643
12370
12125
11792
11654
11552
11551
11675
11723
11669
11583
11500
11443
11423
11644
11879
12168
12437
12632
12835
12920
12996
12987
12920
12903
12832
12672
12409
12111
11851
11409
11279
11173
11084
10911
10782
10839
10947
11024
11136
11216
11401
11665
12022
12340
12569
12934
13231
13567
13776
13859
13914
13954
13835
13740
13673
13535
13172
12953
12795
12742
12733
12478
12215
11999
11677
11247
10822
10188
10121
10176
10305
10403
10516
10647
10959
11351
11610
11719
12170
12379
12449
12428
12395
12336
12265
12048
11746
11555
11465
11629
11809
12025
12235
12335
12850
13173
13484
13753
13861
13776
13663
13641
13609
13597
13668
13692
13504
13278
12990
12555
11870
11553
11239
10883
10668
10587
10470
10459
10420
10340
10241
10268
10415
10636
10862
11090
11615
11851
12102
12312
12470
12606
12913
13008
13110
13109
13122
13110
13144
13160
13114
13021
12970
13070
13126
13143
13060
13001
12833
12763
12656
12583
12529
12528
12374
12215
12189
12147
12090
11802
11643
11489
11318
11194
11137
11238
11403
11559
11561
11575
11693
11844
12042
12297
12493
12706
12813
12876
12792
12735
12797
13067
12953
12709
12654
12662
12532
12454
12389
12273
12082
11846
11897
11917
11903
11943
11966
11623
11298
10899
10535
10272
10070
10225
10505
10904
11332
11740
12414
12640
12754
12945
13154
13378
13442
13549
13619
13590
13483
13391
13314
13259
13138
12963
12621
12432
12230
12059
11929
11487
11282
10996
10639
10288
10038
10105
10325
10476
10666
11003
11781
12060
12357
12670
12963
13223
13489
13370
13193
13101
13026
12929
12819
12654
12473
12290
11904
11793
11676
11643
11570
11528
11850
12162
12447
12620
12753
12802
12796
12759
12665
12514
12373
12088
11932
11794
11690
11646
11639
11544
11505
11494
11543
11556
11573
11664
11820
12053
12259
12573
12679
12845
12853
12809
12814
12691
12556
12514
12562
12608
12558
12428
12269
12131
12032
11915
11880
11928
12036
12079
12141
12261
12359
12406
12437
12519
12928
13087
13181
13164
13001
12722
12553
12329
12216
12138
12049
11818
11601
11377
11236
11179
11240
11382
11526
11771
11951
11956
11726
11549
11520
11587
11749
12050
12180
12259
12279
12292
12665
12774
12744
12646
12511
12320
12056
11901
11870
12022
12259
12731
12830
12919
12985
13008
12990
12735
12533
12308
12089
11829
11480
11331
11265
11312
11332
11081
10880
10700
10532
10325
10103
10490
10976
11507
12032
12575
13400
13632
13759
13708
13507
13242
12714
12582
12514
12469
12436
12596
12757
12867
12857
12710
12462
12065
11869
11570
11322
11032
10695
10699
10879
11170
11500
12319
12567
12786
12946
13011
13063
13143
13146
13055
12982
12886
12804
12751
12652
12578
12582
12655
12805
12774
12696
12594
12587
12564
12469
12361
12212
12083
11906
11788
11694
11693
11754
11805
11931
11911
11839
11732
11648
11257
11096
10929
10814
10765
10795
10854
11013
11205
11515
11899
12332
12579
12877
13195
13572
13951
14369
14398
14393
14397
14529
14370
14143
13722
13192
12638
11664
11304
11062
10971
10950
10922
11051
11242
11218
10902
10432
9591
9284
9170
9295
9599
10073
10624
11120
11540
11939
12554
12753
12872
12966
13110
13400
13674
13609
13410
13203
13119
13175
13211
13176
13078
12813
12091
11931
11844
11811
11749
11702
11859
11987
12025
11826
11502
11011
10975
11048
11130
11195
11239
11667
12026
12404
12680
12890
13017
13098
13149
13175
13173
13117
12960
12981
12921
12841
12834
12822
12911
13001
12998
12984
12977
12765
12491
12248
12169
12144
11950
11922
11936
11995
12010
12030
12098
11990
11674
11423
11118
10609
10612
10692
10835
11091
11786
12092
12365
12503
12508
12421
12280
12086
11973
12025
12141
12148
12126
12285
12614
13017
13722
13915
13906
13657
13411
13218
12675
12376
12117
11824
11484
10907
10744
10630
10565
10476
10300
10338
10389
10428
10473
10622
11679
12242
12630
12841
12935
13107
13189
13258
13283
13420
13620
13628
13419
13201
12910
12651
12059
11770
11669
11690
11708
11743
11914
11929
11774
11612
11602
11927
11960
11987
12022
12075
12204
12262
12279
12341
12451
12709
13109
13295
13477
13635
13702
13833
13842
13728
13605
13514
13319
12818
12545
12265
12017
11762
11162
10769
10454
10258
9998
9598
9242
8931
8630
8534
8761
9355
10200
11595
12163
12690
13048
13192
13296
13390
13490
13537
13444
13179
12451
12014
11738
11734
11950
12561
12971
13332
13505
13457
13134
12915
12745
12765
12755
12809
12998
13075
13176
13156
13124
12655
12218
11719
11224
10664
10109
9416
9359
9466
9795
10162
10553
11045
11599
12067
12882
13177
13396
13544
13682
13980
13907
13807
13585
13332
13048
12500
12131
11730
11473
11365
11710
11871
11951
12082
12310
12863
13069
13166
13180
13237
13284
13286
13106
12824
12545
12209
11661
11411
11208
10941
10602
10262
9722
9623
9731
10054
10625
11306
12013
12580
12994
13228
13410
13536
13539
13009
12623
12421
12230
12118
12188
12158
11809
11481
11231
11035
11139
11297
11495
11631
11901
12762
12868
12787
12700
12670
12583
12296
12274
12336
12486
12664
13004
13212
13362
13406
13290
13039
12215
11858
11692
11681
11719
11694
11680
11681
11538
11281
10989
10622
10763
10931
11135
11444
12222
12614
12970
13375
13738
14382
14519
14530
14360
14151
13898
13330
13000
12549
11947
11291
10440
10181
10049
10168
10507
10794
11558
12145
12431
12500
12714
13146
13173
13262
13431
13499
13171
12998
12852
12617
12333
12088
11402
10995
10720
10491
10284
10050
10098
10132
10128
10141
10339
10591
10799
11157
11525
11892
12618
12980
13235
13530
13724
13701
13268
13115
12959
12818
12749
12703
12938
13277
13599
13764
13510
13092
12607
12204
11874
11632
11217
11097
11120
11303
11491
11775
11877
11980
12113
12289
12310
12084
12037
12115
12271
12401
12828
12953
12986
13014
13068
12571
12171
11856
11693
11643
11694
12147
12392
12507
12544
12619
13068
13290
13294
13038
12710
12297
11405
10930
10487
10218
10075
10271
10558
10979
11417
11842
12547
12637
12765
12866
12858
12986
13563
14000
14372
14552
14572
14261
14006
13661
13233
12751
12407
11990
11665
11274
10819
10390
9674
9441
9204
9033
9052
9210
9499
9856
10214
10599
10967
11291
11765
12948
13286
13521
13761
13933
13767
13500
13224
13005
12967
12968
12939
12951
12959
12916
12844
12388
12050
11756
11503
11210
10938
10829
10890
11081
11263
11395
12093
12543
12957
13300
13531
14110
14396
14520
14509
14396
14132
13468
13232
13028
12742
12497
12118
11785
11328
10750
10142
9605
9179
8836
9054
9374
9838
10404
11016
11534
11964
12280
12460
12285
12062
11938
11885
12048
12915
13402
13727
13962
14115
14411
14457
14380
14202
13934
13574
12702
12174
11719
11391
11107
10762
10684
10506
10323
10243
10187
10334
10616
10928
11287
11689
12711
13184
13614
13940
14205
14454
14461
14362
14272
14103
13854
13246
12885
12491
12023
11458
10439
10121
9928
9915
10002
10055
10127
10354
10492
10700
11014
11388
11713
12088
12313
12698
13092
13380
13676
13877
13946
13914
13840
13728
13425
13116
12816
12539
12386
12308
12290
12222
12015
11624
11058
9854
9405
9176
9186
9531
10142
10944
11681
12278
12768
13319
13377
13321
13249
13273
13473
13510
13500
13431
13385
13217
13088
13039
13171
13266
13283
13018
12790
12542
12303
12003
11323
11265
11358
11548
11584
11566
11196
11042
10843
10687
10688
11208
11491
11837
12180
12370
12580
12706
12853
12941
12882
12720
12051
11618
11379
11404
11658
12226
12315
12211
11977
11630
11387
10951
10602
10260
10112
10257
11069
11605
12113
12574
12882
13216
13677
13765
13848
13953
14036
14254
14243
14096
13902
13815
13769
13641
13376
13036
12705
12375
11718
11439
11228
11136
11077
10799
10491
10152
9785
9404
9207
9408
9885
10460
10992
12181
12857
13462
13857
14110
14323
14323
14129
13816
13501
13224
12729
12624
12557
12564
12541
12095
11638
11185
10774
10386
10176
10242
10426
10668
11096
11646
12412
12561
12595
12550
12462
12433
12230
11780
11206
10792
10731
11406
11788
12184
12487
12758
13126
13086
12938
12840
12733
12600
12456
12445
12500
12572
12661
12619
12544
12665
12880
12956
12753
12285
12231
12321
12529
12803
12972
12846
12722
12641
12549
12350
11727
11371
11025
10813
10611
10654
10977
11408
11774
11991
12286
12303
12251
12180
12101
11993
11895
11920
11906
11843
11905
12229
12414
12577
12751
12907
13023
13142
13178
13159
13149
13150
12961
12851
12724
12562
12274
11734
11659
11663
11652
11631
11649
11607
11529
11447
11467
11523
11501
11533
11662
11830
11937
12060
12748
13058
13291
13400
13395
13229
13035
12784
12629
12454
12230
11964
11826
11612
11346
11117
10532
10260
9986
9906
10139
10610
11109
12042
12480
12880
13099
13312
13412
13356
13264
13164
13030
12859
12341
11967
11631
11314
11088
10979
11019
11092
11304
11700
12250
13101
13323
13536
13790
13928
13693
13483
13285
13122
12998
12844
12522
12230
11919
11694
11497
10882
10570
10432
10476
10618
10835
11608
11926
12110
12167
12154
12153
12142
12117
12146
12273
12477
12524
12582
12596
12598
12579
12600
12588
12507
12497
12533
12564
12470
12326
12181
12121
12004
11973
12019
12136
12197
12198
12242
12310
12352
12411
12605
12870
12929
12930
12859
12687
12484
12203
12067
11899
11713
11595
11568
11564
11462
11366
11226
11065
10860
10764
10690
10793
11052
11511
11776
12111
12449
12819
13534
13886
14119
14098
13922
13669
13177
12929
12641
12238
11870
11444
11264
11001
10896
11055
11395
11996
12085
12005
11744
11426
11080
11090
11193
11409
11725
12174
12776
12977
13096
13180
13200
13034
12921
12827
12749
12658
12603
12645
12601
12463
12332
12184
11813
11590
11412
11370
11421
11609
11643
11643
11620
11676
11853
12583
12894
13161
13382
13487
13372
13227
13090
12947
12772
12459
12251
12140
12065
12038
11993
11512
11214
10919
10663
10395
10075
10160
10403
10709
11125
11599
12264
12427
12566
12665
12793
12847
12874
12865
12883
12873
12885
12916
12890
12805
12648
12543
12249
12105
12034
11987
11932
11888
11981
12076
12129
12223
12270
11998
11826
11732
11741
11817
12057
12255
12432
12501
12534
12583
12662
12611
12533
12379
12272
12065
11922
11928
11998
12103
12221
12224
12280
12428
12551
12559
12482
12462
12465
12555
12658
12577
12486
12439
12436
12457
12406
12218
12122
12015
11893
11758
11328
11320
11475
11643
11684
11601
11509
11325
11163
11077
11094
11501
11933
12357
12669
12771
12710
12628
12611
12570
12505
12435
12569
12651
12638
12590
12534
12233
11898
11575
11395
11359
11421
11725
11808
11935
12125
12289
12394
12318
12143
12060
12126
12282
12305
12269
12266
12275
12341
12460
12554
12631
12657
12624
12568
12523
12499
12478
12526
12552
12580
12523
12395
12272
12207
12140
12115
12090
12016
11934
11828
11784
11738
11766
11830
11835
11778
11751
11780
11889
12055
12242
12258
12271
12197
12165
12203
12205
12171
12085
12016
11996
12118
12175
12312
12428
12518
12523
12184
12019
11937
11875
11844
11626
11569
11562
11604
11704
11891
12011
12035
12017
12099
12220
12410
12466
12493
12493
12486
12627
12631
12606
12585
12551
12600
12558
12531
12472
12408
12328
12254
12239
12166
12064
11958
11766
11814
11888
11974
12040
12158
12260
12233
12213
12218
12273
12411
12496
12564
12645
12602
12479
12205
12012
11807
11639
11543
11499
11601
11687
11737
11756
11825
11939
12074
12223
12316
12397
12389
12354
12300
12216
12185
12299
12371
12425
12507
12582
12580
12450
12451
12433
12357
12299
12282
12342
12377
12298
12119
11930
11501
11379
11391
11465
11619
12007
12095
12152
12146
12133
12135
12222
12284
12281
12310
12336
12257
12251
12315
12393
12448
12432
12376
12311
12212
12184
12214
12240
12331
12489
12557
12564
12537
12503
12440
12334
12193
11833
11759
11715
11656
11676
11697
11588
11462
11452
11576
11782
12154
12303
12408
12460
12453
12447
12375
12308
12253
12202
12147
11999
11909
11883
11963
12008
12039
12255
12355
12418
12490
12573
12595
12582
12540
12434
12341
12392
12411
12363
12324
12298
12271
12225
12150
12111
12046
11992
12015
11970
11857
11707
11604
11585
11724
11840
11950
12033
12139
12343
12423
12455
12492
12484
12600
12686
12683
12641
12643
12607
12426
12353
12276
12250
12264
12104
11885
11585
11411
11415
11400
11255
11280
11321
11317
11403
11657
11826
12036
12200
12357
12595
12700
12705
12662
12606
12610
12574
12537
12470
12427
12425
12316
12303
12354
12376
12365
12299
12175
12117
12119
12174
12139
12107
12145
12107
11983
11920
11907
12059
12156
12222
12199
12223
12329
12324
12218
12173
12123
11984
11948
11982
12015
12018
12023
12034
12108
12231
12301
12314
12412
12411
12433
12467
12505
12477
12417
12384
12325
12245
12224
12142
12032
11918
11818
11726
11578
11487
11545
11676
11791
11857
11970
12053
12107
12156
12190
12284
12357
12392
12320
12226
12203
12255
12322
12371
12371
12340
12202
12156
12188
12202
12223
12211
12173
12293
12443
12482
12386
12140
12091
12076
12011
11923
11859
11887
11934
11986
12017
12073
12127
12166
12202
12209
12203
12254
12255
12264
12232
12173
12152
12179
12225
12277
12279
12286
12305
12295
12341
12350
12334
12270
12310
12349
12349
12346
12315
12207
12190
12166
12098
11973
11771
11787
11846
11905
11902
11986
12063
12051
12138
12206
12242
12267
12219
12206
12236
12243
12210
12231
12247
12239
12235
12249
12224
12231
12245
12240
12240
12208
12184
12127
12087
12053
12058
12110
12130
12132
12177
12186
12154
12142
12103
12063
12070
12127
12226
12222
12157
12105
12104
12150
12187
12245
12282
12303
12247
12280
12295
12286
12331
12303
12143
12058
12024
12023
12069
12104
12115
12071
12025
11993
12034
12063
12061
11993
11929
11837
11877
12002
12095
12177
12235
12270
12326
12379
12435
12477
12477
12412
12373
12401
12420
12394
12237
12137
12021
11928
11912
12004
12195
12209
12212
12207
12174
12160
12220
12266
12302
12340
12315
12182
12160
12137
12120
12096
11938
11946
11934
11900
11901
12037
12064
12053
11973
11945
12012
12154
12196
12196
12127
12089
12198
12261
12269
12265
12281
12283
12275
12277
12312
12312
12311
12246
12239
12215
12178
12201
12312
12323
12296
12202
12082
12013
12067
12096
12127
12186
12245
12275
12242
12161
12114
12127
12170
12188
12176
12169
12161
12161
12127
12114
12078
12037
12021
12064
12167
12200
12193
12152
12142
12191
12191
12159
12210
12209
12189
12191
12169
12197
12190
12214
12177
12160
12178
12191
12195
12150
12137
12163
12137
12143
12149
12242
12234
12274
12234
12194
12177
12164
12139
12135
12113
12066
12046
12048
12059
12054
12079
12059
12022
12004
12018
12024
11993
11990
12051
12131
12148
12141
12243
12295
12358
12344
12299
12218
12252
12235
12188
12203
12221
12225
12210
12209
12199
12195
12216
12211
12246
12280
12303
12174
12024
11936
11917
11964
12045
12188
12230
12267
12251
12207
12132
12182
12190
12147
12091
12069
12127
12169
12203
12129
12081
12141
12165
12211
12217
12233
12211
12187
12145
12144
12139
12178
12259
12253
12271
12268
12271
12225
12184
12099
12016
12014
12078
12163
12215
12239
12229
12207
12229
12242
12209
12192
12192
12234
12255
12212
12168
12164
12146
12086
12064
12059
12083
12139
12021
11876
11802
11787
11854
11987
12179
12231
12274
12298
12304
12295
12305
12277
12239
12214
12235
12233
12180
12111
12119
12129
12107
12167
12205
12223
12200
12178
12165
12177
12203
12196
12189
12220
12213
12229
12268
12224
12194
12217
12173
12158
12115
12099
12146
12131
12097
12084
12078
12114
12114
12103
12149
12196
12162
12148
12165
12214
12253
12216
12224
12213
12236
12225
12215
12173
12163
12166
12165
12157
12174
12121
12085
12085
12043
12066
12038
12049
12142
12203
12230
12227
12142
12075
12050
12065
12081
12135
12162
12199
12156
12151
12099
12151
12198
12256
12238
12169
12016
11992
11998
12019
12091
12164
12163
12215
12241
12247
12303
12272
12285
12302
12261
12190
12136
12205
12217
12264
12271
12256
12254
12265
12233
12172
12143
12162
12175
12167
12126
12106
12158
12156
12162
12184
12202
12218
12168
12117
12099
12149
12199
12218
12240
12204
12150
12120
12171
12175
12149
12107
12054
12037
12114
12143
12149
12124
12100
12117
12097
12135
12177
12195
12208
12211
12170
12148
12156
12181
12192
12238
12231
12221
12213
12222
12200
12224
12231
12198
12159
12113
12128
12155
12151
12087
12034
12023
12024
12016
12064
12120
12198
12196
12156
12163
12215
12238
12267
12221
12183
12152
12169
12227
12226
12233
12219
12180
12160
12185
12224
12218
12166
12122
12120
12176
12201
12230
12230
12249
12221
12216
12224
12236
12193
12157
12117
12015
11961
11945
12053
12070
12018
11973
11938
11947
12027
12132
12238
12311
12320
12370
12386
12342
12376
12415
12334
12329
12308
12250
12241
12128
11961
11829
11801
11815
11877
12103
12205
12288
12319
12334
12147
12051
11973
11909
11911
11960
12048
12094
12149
12165
12236
12244
12199
12156
12132
12149
12260
12301
12316
12338
12355
12350
12266
12271
12255
12234
12262
12203
12173
12180
12172
12156
12180
12122
12126
12152
12100
12134
12172
12178
12198
12161
12147
12191
12193
12190
12216
12219
12213
12213
12239
12211
12156
12096
12005
12019
12055
12050
12025
12101
12098
12089
12083
12116
12154
12258
12257
12287
12276
12261
12260
12271
12256
12246
12258
12215
12245
12226
12203
12198
12237
12188
12099
12010
11911
11819
11777
11802
11907
12040
12081
12112
12277
12341
12391
12451
12430
12378
12292
12221
12135
12121
12097
12217
12267
12326
12375
12347
12143
12079
12049
12038
12082
12044
11849
11859
11978
12089
12128
12173
12188
12231
12252
12270
12263
12285
12324
12289
12290
12309
12351
12330
12312
12183
11987
11806
11698
11727
11772
11888
12002
12154
12101
12105
12080
12002
12042
12161
12248
12280
12311
12309
12300
12305
12259
12223
12280
12342
12334
12301
12331
12295
12309
12359
12356
12331
12320
12282
12200
12119
12081
12122
12131
12118
12173
12202
12215
12196
12194
12146
12176
12178
12166
12164
11990
11886
11847
11940
12036
12077
12110
12104
12137
12226
12302
12405
12445
12416
12426
12367
12279
12361
12470
12519
12520
12425
12046
11906
11878
11907
11921
11906
11804
11702
11646
11612
11556
11677
11732
11760
11765
11859
12078
12178
12219
12284
12343
12356
12451
12509
12595
12623
12665
12570
12514
12441
12337
12338
12465
12465
12399
12276
12127
12052
11994
11978
12019
12021
12028
12034
12012
11975
11939
11982
12063
12114
12137
12142
12174
12161
12048
12017
12023
12077
12105
12274
12307
12354
12397
12469
12497
12549
12542
12484
12378
12310
12205
12076
11932
11749
11665
11657
11589
11569
11550
11606
11686
11857
11908
11957
12097
12232
12323
12365
12390
12404
12432
12363
12271
12281
12299
12318
12269
12168
12115
12092
12045
12063
12165
12329
12360
12401
12429
12429
12447
12375
12344
12358
12407
12426
12418
12386
12379
12318
12303
12242
12199
12162
12087
12021
11870
11750
11613
11545
11535
11623
11755
11813
12000
12110
12186
12308
12337
12382
12434
12473
12504
12443
12393
12383
12393
12498
12752
12707
12635
12632
12623
12460
12316
12128
11912
11717
11631
11756
11827
11773
11724
11647
11414
11249
11125
11104
11126
11186
11517
11749
11959
12119
12288
12560
12608
12642
12637
12591
12523
12513
12530
12553
12537
12428
12391
12388
12424
12480
12497
12423
12421
12371
12370
12354
12377
12409
12420
12402
12397
12377
12378
12363
12340
12336
12297
12200
11909
11725
11582
11532
11567
11669
11755
11877
11958
12077
12451
12557
12612
12619
12634
12598
12471
12412
12328
12159
12091
11992
11947
11881
11898
11948
11878
11700
11626
11583
11545
11561
11653
11821
11993
12092
12208
12325
12532
12569
12529
12519
12544
12665
12619
12627
12606
12593
12477
12412
12291
12210
12123
12041
11927
11906
11871
11788
11786
11885
11903
11861
11846
11898
12056
12371
12453
12481
12481
12526
12656
12731
12780
12811
12904
13031
13065
12989
12788
12555
12239
11610
11461
11446
11499
11498
11275
11155
11076
10997
10954
11041
11194
11259
11334
11411
11533
11965
12201
12394
12616
12771
12985
13011
13039
12992
12938
12931
12778
12700
12634
12601
12596
12562
12485
12418
12305
12228
12187
12085
11999
11928
11775
11666
11736
11797
11824
11871
11978
12121
12276
12324
12356
12387
12462
12367
12319
12323
12344
12374
12342
12214
12135
12073
12087
12167
12241
12253
12247
12167
11991
11689
11631
11626
11670
11722
11723
11817
12051
12292
12428
12500
12482
12443
12453
12462
12503
12677
12657
12656
12628
12616
12607
12466
12367
12228
12032
11784
11293
11097
10915
10785
10737
10829
11196
11429
11676
11889
12065
12413
12545
12638
12737
12825
12863
12849
12828
12812
12806
12793
12720
12679
12640
12689
12740
12749
12775
12768
12716
12602
12493
11980
11652
11311
11016
10834
11102
11333
11578
11761
11948
12098
12298
12266
12239
12175
11998
11743
11682
11692
11676
11680
11716
11904
12110
12320
12494
12688
12928
12956
13004
13037
13045
12929
12820
12723
12649
12595
12642
12755
12580
12277
12010
11781
11523
11558
11589
11718
11925
12204
12329
12511
12641
12669
12570
12220
12066
11901
11777
11694
11819
11960
12023
11894
11507
10938
10074
9959
9878
9983
10324
10800
11395
11994
12977
13233
13430
13507
13519
13439
13385
13298
13224
13157
13044
12847
12763
12659
12617
12594
12348
12160
11972
11790
11624
11428
11254
11324
11475
11669
11819
12068
12082
12081
12101
12073
12149
12251
12331
12392
12494
12649
12810
12839
12820
12782
12750
12782
12715
12653
12606
12560
12535
12451
12420
12334
12160
12002
11726
11555
11469
11419
11365
11340
11406
11448
11408
11371
11345
11603
11843
12063
12228
12395
12577
12635
12683
12757
12806
12818
12634
12596
12582
12575
12590
12830
12892
12913
12932
12806
12569
12066
11817
11592
11472
11507
11947
12342
12641
12815
12929
12881
12678
12370
11984
11587
11171
10337
10105
10130
10303
10533
10848
10850
10820
10783
10771
10864
11345
11576
11826
12126
12503
13189
13390
13517
13655
13729
13803
13779
13807
13921
14026
14100
13787
13485
13185
12910
12568
11937
11569
11179
10793
10502
10301
10253
10418
10745
11069
11340
11786
11892
11899
11868
11826
11890
12215
12389
12549
12701
12809
12972
12909
12782
12716
12640
12654
12657
12631
12596
12549
12494
12404
12432
12467
12477
12458
12537
12563
12546
12487
12421
12365
12272
12207
12172
12130
12157
12220
12148
12005
11899
11825
11693
11632
11633
11652
11699
11803
12122
12184
12194
12207
12213
12169
12121
12102
12106
12210
12291
12538
12610
12667
12702
12762
12827
12853
12887
12931
13002
12949
12896
12859
12759
12543
12253
11668
11361
11103
10990
10912
10899
10972
11043
11140
11246
11266
11219
11117
10982
10870
10905
11564
11891
12090
12194
12284
12345
12297
12263
12287
12498
12793
13078
13133
13253
13322
13234
12346
11720
11089
10686
10591
10664
10795
10969
11260
11609
11952
12366
12364
12227
12052
11949
11864
11948
12158
12395
12591
12771
12966
13013
13045
13101
13155
13219
13258
13266
13243
13229
13241
13073
13008
12948
12812
12714
12639
12594
12555
12524
12403
12273
12113
12042
12052
12024
11933
11742
11649
11585
11516
11422
11247
11305
11395
11477
11560
11644
11950
12111
12272
12339
12371
12326
12263
12165
12121
12116
12114
12066
12035
12075
12242
12548
12991
13043
13117
13160
13130
13072
12896
12873
12834
12694
12566
12438
12374
12366
12243
12040
11531
11292
11021
10716
10365
10006
9982
10262
10673
11255
11889
12429
13120
13116
13060
12995
12956
12925
13036
13221
13347
13368
13354
13210
13062
12855
12628
12317
11309
10786
10502
10354
10261
10305
10889
11191
11374
11376
11256
10907
10733
10578
10460
10514
10833
11632
11943
12183
12388
12471
12505
12565
12713
12925
13156
13435
13614
13757
13781
13639
13480
13299
13203
13094
12998
12841
12461
12271
12059
11865
11767
11790
11906
12026
12045
12066
12055
11920
11855
11843
11873
11967
12053
12343
12529
12711
12821
12788
12649
12606
12551
12526
12557
12458
12315
12178
12120
12080
12150
12379
12499
12667
12704
12599
12375
12217
12051
11972
11952
11932
11828
11777
11728
11721
11756
11606
11481
11379
11344
11356
11390
11378
11345
11248
11144
11229
11681
11876
12027
12125
12305
12901
13356
13896
14448
14862
14997
14787
14616
14376
14060
13710
12906
12555
12301
12223
12196
12056
11194
10710
10089
9299
8574
7933
7419
7233
7393
7739
8317
9019
9737
10513
12034
12767
13247
13463
13645
13914
14367
14493
14522
14476
14406
14147
14156
14231
14115
13862
13330
13032
12781
12569
12409
12208
11594
11048
10425
9764
9191
8713
8531
8779
9217
9695
10266
10954
12183
12683
13164
13577
13930
14378
14455
14476
14418
14324
14028
13792
13541
13257
12996
12754
12286
12117
11981
11796
11651
11384
11207
11047
10856
10689
10523
10773
10937
11128
11297
11440
11844
12067
12219
12355
12430
12462
12468
12486
12504
12593
12646
12853
13003
12998
12918
12930
12880
12866
12842
12815
12741
12649
12447
12302
12220
12142
11986
11795
11822
11823
11916
11980
12058
12427
12374
12227
12148
12117
12275
12429
12574
12710
12691
12446
12370
12286
12273
12265
12195
12012
11975
11852
11646
11371
10832
10612
10435
10359
10404
10518
10966
11248
11556
11950
12384
12861
12891
12923
12906
12827
12720
12775
12899
13065
13140
13096
13107
13235
13322
13418
13442
13544
13633
13537
13184
12738
12297
11369
10936
10629
10480
10516
10713
10718
10801
10875
10954
11089
11440
11551
11546
11558
11675
12245
12451
12582
12662
12773
12778
12906
12942
12851
12708
12589
12508
12297
11884
11386
10966
10709
10979
11342
11769
12113
12442
13082
13264
13328
13320
13307
13217
13140
13030
12979
12893
12442
12104
11735
11333
10900
10566
10377
10482
10747
11091
11494
11847
11908
12045
12315
12602
12923
13360
13461
13491
13465
13409
13171
13062
12984
12902
12838
12573
12483
12453
12400
12376
12391
12319
12283
12193
12038
11879
11744
11714
11564
11442
11378
11340
11267
11271
11343
11408
11447
11475
11547
11691
11906
12159
12378
12561
12565
12581
12618
12761
13192
13278
13345
13415
13462
13514
13515
13444
13282
13194
12995
12413
12258
12221
12223
12157
11837
11660
11469
11290
11108
10877
10239
10017
9844
9608
9473
9463
9463
9534
9760
10149
10635
11579
12067
12519
12755
12908
13029
13307
13368
13324
13215
13090
13119
13072
12936
12829
12814
12886
13044
13144
13279
13383
13446
13428
13426
13351
13208
12973
12697
12411
12270
11991
11667
11398
10782
10507
10306
10223
10300
10911
11221
11554
11890
12236
12510
12729
12735
12856
12992
13076
12955
12891
12885
12837
12722
12515
12325
12366
12505
12705
12951
13226
13305
13273
13151
12871
12154
11747
11329
11035
10929
10939
11135
11245
11353
11474
11520
11500
11389
11305
11222
11092
10892
10704
10852
11241
11685
12098
12523
12551
12389
12175
11959
11994
12209
12463
12778
13202
13534
13747
13801
13708
13584
13389
12920
12826
12749
12678
12653
12601
12327
12175
12020
11819
11567
11165
11030
10865
10827
10910
11078
11504
11685
11868
12112
12304
12794
13097
13315
13438
13417
13335
13170
13026
12807
12480
12214
12037
12028
12036
12054
12048
11921
11787
11687
11616
11692
11883
12315
12482
12610
12579
12462
12226
12146
12116
12160
12335
12514
12417
12129
11791
11549
11349
10947
10868
10934
11118
11221
10909
10693
10512
10356
10275
10224
10478
10751
11124
11454
11788
12479
12935
13380
13690
13889
14024
14184
14268
14313
14285
14249
14107
14040
13816
13490
13190
12699
12374
12031
11711
11417
11220
10980
10981
11004
11067
11215
11438
11460
11508
11539
11430
11364
11409
11546
11806
12147
12535
13105
13310
13491
13901
14324
14019
13561
13090
12645
12203
11889
11550
11480
11530
11553
11470
11063
10904
10853
10869
10853
10842
10714
10571
10583
10745
10969
11642
12174
12721
13172
13428
13524
13605
13690
13703
13685
13729
13934
13907
13915
14006
13973
13670
13495
13226
12941
12671
12359
11651
11327
11058
10829
10549
10077
9905
9740
9642
9634
9727
9849
10000
10256
10565
10985
11733
12029
12258
12470
12596
12729
12714
12738
12807
12863
12904
12762
12758
12730
12634
12575
12389
12345
12433
12478
12561
12852
13684
14096
14509
14597
14451
13881
13487
13076
12695
12454
12313
11985
11823
11630
11462
11232
10322
9749
9138
8628
8172
7970
8107
8603
9431
10392
11245
12073
12825
13607
13745
13901
13920
13870
13711
13647
13619
13555
13536
13640
13811
13725
13567
13363
13123
12625
12339
12035
11823
11794
12047
12035
11978
11856
11703
11635
11620
11680
11940
12129
12227
12541
12631
12619
12562
12435
12312
12032
11730
11440
11276
11239
11195
11212
11207
11179
11183
11479
11400
11108
10798
10547
10580
11506
11926
12271
12653
13007
13593
13625
13624
13603
13593
13623
13397
13056
12719
12533
12424
12051
11847
11565
11398
11384
11472
11505
11555
11642
11717
11738
11827
11896
11876
11750
11547
11674
12011
12373
12750
13045
13222
13162
12961
12830
12785
12640
12454
12442
12508
12623
12532
12262
11876
11877
12013
12123
12213
12351
12297
12163
11932
11707
11335
11241
11325
11361
11378
11477
11826
12090
12316
12448
12457
12647
12983
13454
14021
14366
14346
13697
13198
12700
12250
11866
11353
11107
10974
11021
11252
11600
11825
12050
12161
12096
11904
11163
10872
10812
10918
11127
11529
11793
12124
12434
12732
12933
12936
12929
13023
13101
13039
12227
11839
11712
11883
12099
12137
11752
11724
12072
12402
12503
12352
12194
12066
11865
11691
11884
12098
12078
11861
11576
11283
10928
10815
10743
10721
10800
11322
11904
12414
12782
13034
13240
13408
13346
13233
13084
12957
13152
13194
13188
13150
13141
13180
13240
13192
12977
12570
12215
12019
11967
11835
11634
11434
10796
10523
10534
10800
11188
11621
12509
12944
13238
13400
13333
13122
13087
13004
12918
12854
12769
12373
12144
11983
11899
11788
11639
11684
11692
11621
11455
10917
10675
10530
10538
10716
10955
11588
11803
12009
12256
12589
13430
13849
14126
14155
14014
13672
12780
12215
11604
11084
10739
10863
11254
11801
12300
12682
12776
12542
12237
11866
11369
10947
11067
11495
11967
12508
13122
13823
13985
14038
13893
13628
13263
12505
12263
12166
12171
12223
12304
12087
11812
11496
11213
10398
9954
9768
9832
9985
10200
10378
10572
10755
10980
11977
12615
13133
13521
13822
14054
13908
13617
13236
12863
12066
11760
11607
11530
11578
11842
12777
13123
13364
13520
13480
12913
12570
12132
11818
11599
11604
11768
11781
11696
11520
11530
11309
11137
11061
11149
11329
11715
11968
12278
12554
12638
12557
12710
12860
13053
13209
13195
13149
13161
13147
13062
12973
12804
12441
12269
12091
12001
11894
11646
11401
11147
11031
10988
10960
11316
11673
12044
12316
12483
12741
12848
12961
12975
12909
12604
12351
12033
11717
11573
11441
11470
11615
11701
11634
11464
11273
11338
11644
12126
12607
12927
13126
13119
13121
13164
13167
13151
13080
12996
12917
12718
12524
12563
12650
12731
12754
12760
12305
11918
11595
11041
10478
10099
10319
10609
10835
11019
11171
11461
11597
11619
11547
11455
11583
11752
11951
12251
12526
12679
12668
12697
12765
12781
12825
12895
12996
13112
13308
13419
13172
12971
12766
12565
12417
12222
11904
11611
11374
11256
11251
11432
11567
11703
11828
11858
11813
11837
12026
12320
12603
12855
12979
12962
12941
12935
12893
12796
12714
12565
12384
12192
12082
12115
12122
12122
12206
12229
12171
12057
11896
11884
12047
12116
11779
11634
11483
11343
11192
11247
11478
11783
12067
12287
12534
12656
12740
12670
12493
12336
12249
12136
11898
11744
11681
11674
11693
11741
11771
11783
11914
12237
12400
12482
12541
12523
12334
12284
12243
12255
12348
12422
12508
12568
12677
12801
12883
12679
12555
12405
12174
11981
11690
11618
11660
11729
11821
11905
11818
11662
11562
11474
11533
12024
12246
12495
12845
13211
13336
13251
13158
12982
12786
12595
12374
12313
12223
12049
11948
11717
11675
11689
11757
11781
11735
11516
11502
11613
11768
11935
12174
12272
12333
12322
12201
12022
12150
12332
12391
12281
12101
11773
11657
11532
11404
11321
11455
11927
12001
12095
12189
12259
12286
12421
12660
12965
13201
13282
13186
13000
12717
12277
11878
11472
11346
11336
11364
11398
11658
11815
11960
12017
12005
12040
12135
12176
12281
12422
12560
12670
12627
12510
12413
12338
12424
12528
12601
12707
12716
12581
12321
12192
12146
12226
12361
12537
12567
12603
12617
12536
12424
12048
11806
11593
11375
11215
11153
11160
11240
11361
11529
11858
11974
12116
12212
12345
12441
12580
12724
12928
13248
13437
13172
13051
12844
12586
12435
12282
12163
12128
12128
12140
12177
12272
12257
12194
12095
11949
11759
10926
10345
9773
9541
9625
9803
10089
10539
11097
12096
12365
12531
12720
12969
13437
13555
13636
13734
13779
13625
13491
13352
13166
12958
12698
12346
12252
12224
12245
12289
12046
11721
11397
11095
10770
10628
11017
11464
11863
12156
12436
12743
12759
12719
12700
12729
12760
12583
12409
12211
11976
11757
11202
11053
11066
11203
11431
12196
12514
12757
12867
12899
12936
12846
12726
12543
12345
12201
12281
12324
12388
12520
12607
12725
12975
12947
12884
12731
12504
12011
11841
11644
11448
11392
11559
11442
11263
11061
10958
11013
11582
11902
12148
12323
12446
12518
12487
12301
12073
11981
11869
11835
11952
11875
11710
11650
11674
11675
11734
11864
12032
12166
12395
12412
12573
12744
12851
12988
13116
13172
13122
13069
12938
12894
12938
12938
12926
12922
12755
12542
12279
11921
11497
10914
10829
10749
10656
10620
10758
11319
11460
11548
11748
11974
12297
12466
12639
12749
12831
13004
13008
12969
12897
12860
12848
12829
12643
12495
12336
12179
11977
11951
11891
11822
11712
11621
11576
11640
11732
11827
11913
11993
11972
11970
11963
11971
12269
12487
12561
12518
12381
12278
12206
12232
12411
12639
12731
12531
12445
12415
12312
12209
12102
11928
11837
11739
11761
11730
11780
11869
12018
12127
12133
12134
12150
12087
11923
11742
11552
11843
12057
12177
12166
12123
12135
12274
12398
12516
12564
12630
12786
12783
12730
12728
12684
12376
12261
12081
11974
11940
11850
11630
11661
11861
12065
12280
12714
12803
12823
12749
12636
12222
11912
11608
11459
11537
11703
11993
12133
12177
12086
11948
11599
11491
11507
11602
11756
11883
12197
12405
12563
12587
12498
12287
12288
12329
12331
12383
12457
12600
12560
12464
12409
12390
12190
12071
12018
12006
12015
12037
11987
11929
11871
11859
11853
11894
12058
12191
12262
12295
12319
12421
12496
12497
12402
12325
12421
12394
12316
12259
12289
12244
12107
12002
11887
11874
12112
12259
12356
12413
12448
12369
12090
12007
11887
11753
11728
11643
11693
11826
11998
12133
12204
12346
12292
12204
12134
12085
12111
12166
12212
12211
12181
12284
12363
12472
12545
12589
12553
12328
12248
12228
12213
12198
12151
12135
12092
12095
11995
11947
11849
11764
11717
11693
11761
12177
12314
12392
12517
12562
12614
12669
12610
12576
12554
12588
12476
12333
12234
12169
12139
11967
11760
11629
11634
11767
11896
11905
11846
11787
11835
12008
12220
12217
12222
12182
12182
12173
12123
12049
11987
11926
11997
12073
11966
11875
11839
11800
11872
12039
12241
12406
12513
12652
12723
12631
12474
12391
12369
12292
12077
11765
11504
11418
11357
11475
11721
11907
12087
12221
12461
12545
12628
12642
12696
12727
12641
12562
12572
12503
12508
12615
12658
12633
12599
12496
12293
12167
12073
11983
11919
11888
11827
11778
11754
11763
11820
11938
11985
11970
11959
11991
11991
12029
12044
12062
12108
12111
12103
12043
12008
11962
11951
12035
12204
12373
12489
12562
12652
12592
12560
12534
12529
12509
12417
12346
12264
12166
12106
12048
11774
11528
11393
11382
11549
12007
12195
12324
12444
12485
12482
12381
12338
12330
12297
12315
12427
12385
12307
12204
12113
11965
11937
11906
11926
11977
12022
12209
12272
12284
12300
12255
12151
12155
12180
12207
12246
12227
12005
11900
11828
11762
11706
11650
11736
11899
12087
12206
12313
12341
12303
12276
12301
12361
12466
12520
12461
12449
12408
12210
12169
12189
12178
12164
12175
12055
12074
12133
12231
12293
12278
12219
12130
12072
11913
11581
11567
11751
11905
11992
12062
12335
12378
12355
12320
12333
12391
12420
12487
12539
12525
12550
12411
12301
12190
12097
12016
11876
11816
11838
11849
11884
11868
11844
11916
11944
11949
11979
12147
12228
12295
12258
12268
12261
12289
12353
12412
12408
12378
12279
12214
12240
12251
12256
12231
12218
12231
12227
12206
12226
12172
12163
12170
12150
12123
12126
12127
12174
12205
12167
12164
12175
12208
12282
12301
12282
12090
11955
11888
11846
11771
11810
11945
12052
12121
12171
12249
12368
12368
12352
12312
12296
12312
12328
12307
12243
12131
12118
12245
12320
12360
12352
12309
12235
12109
12033
11981
11941
11884
11968
12091
12203
12330
12356
12194
12027
11948
11982
12091
12150
12050
11942
11869
11856
11842
11893
11984
12118
12313
12435
12425
12381
12348
12380
12428
12323
12311
12316
12325
12312
12346
12350
12217
12051
11928
11776
11647
11709
11823
11935
12000
12089
12181
12217
12274
12327
12360
12398
12366
12307
12308
12292
12319
12296
12310
12250
12221
12178
12200
12227
12264
12290
12291
12212
12188
12167
12156
12163
12101
12023
12011
12008
12030
12025
12065
12069
12047
12057
12095
12123
12100
12103
12135
12167
12204
12251
12289
12316
12296
12299
12185
12177
12194
12218
12239
12228
12238
12255
12277
12284
12318
12250
12220
12192
12073
11947
11849
11889
11914
11940
11905
11852
11896
11942
12021
12092
12204
12374
12418
12410
12409
12396
12373
12254
12233
12167
12167
12228
12370
12321
12173
12018
11950
11945
12029
12001
12040
12122
12244
12400
12356
12297
12293
12238
12111
11990
12019
12027
11948
11869
11797
11865
11972
12091
12190
12328
12326
12332
12354
12326
12315
12343
12336
12328
12365
12358
12368
12330
12314
12288
12280
12219
12080
12037
12057
12079
12077
11963
11941
11956
11954
12003
12144
12223
12250
12261
12246
12212
12241
12244
12224
12238
12255
12248
12229
12243
12204
12151
12117
12099
12104
12116
12131
12149
12143
12093
12106
12102
12113
12189
12232
12245
12258
12244
12198
12202
12214
12196
12189
12219
12293
12307
12316
12285
12270
12246
12099
11997
11934
11933
11944
11847
11734
11767
11863
11989
12143
12336
12390
12446
12484
12496
12563
12604
12620
12588
12582
12425
12356
12279
12202
12170
12078
11663
11482
11363
11281
11241
11287
11369
11570
11840
12078
12214
12367
12441
12472
12508
12492
12456
12450
12437
12425
12422
12418
12400
12369
12363
12351
12315
12274
12217
12159
12134
12129
12114
12111
12043
12062
12090
12082
12157
12187
12176
12185
12170
12145
12174
12198
12192
12142
12190
12269
12243
12220
12235
12231
12247
12228
12195
12159
12149
12107
12101
12079
12061
12086
12089
12138
12227
12317
12317
12279
12098
12024
11927
11847
11808
11854
12093
12165
12169
12205
12242
12263
12282
12260
12210
12185
12185
12186
12190
12120
12087
12144
12146
12144
12157
12186
12177
12140
12125
12152
12196
12206
12201
12290
12294
12333
12329
12344
12266
12217
12182
12145
12106
12069
12073
12085
12055
12029
11999
11967
12011
12105
12168
12227
12211
12179
12217
12264
12285
12245
12055
11974
11982
12020
12103
12218
12237
12245
12222
12216
12196
12164
12179
12181
12190
12241
12263
12249
12284
12304
12344
12316
12297
12293
12317
12276
12229
12140
12102
12002
11896
11816
11877
11934
11956
11959
11969
11989
12048
12092
12120
12143
12193
12265
12277
12247
12241
12237
12251
12254
12247
12281
12305
12317
12251
12222
12212
12210
12188
12114
12096
12139
12172
12172
12190
12120
12047
11995
11982
12011
12083
12120
12120
12210
12264
12261
12237
12178
12115
12126
12171
12235
12282
12285
12269
12250
12180
12165
12157
12142
12087
12058
12048
12063
12104
12157
12127
12118
12101
12097
12138
12187
12223
12174
12120
12094
12113
12160
12204
12216
12210
12191
12170
12247
12254
12256
12268
12251
12242
12169
12183
12183
12181
12168
12118
12080
12075
12067
12120
12131
12194
12209
12179
12185
12211
12202
12183
12211
12202
12213
12187
12254
12314
12394
12450
12485
12474
12453
12433
12401
12385
12287
12187
11928
11619
11337
11206
11416
11438
11344
11314
11434
11962
12127
12235
12282
12300
12314
12394
12380
12410
12404
12384
12375
12398
12410
12371
12358
12261
12289
12278
12278
12274
12296
12365
12372
12337
12317
12305
12332
12318
12312
12333
12361
12350
12217
12080
11934
11924
11994
12107
12144
12160
12150
12123
12014
11930
11998
12079
12190
12298
12351
12375
12376
12304
12231
12127
12080
12062
12119
12184
12223
12153
12121
12131
12118
12084
11916
11861
11877
12006
12171
12297
12309
12357
12355
12278
12189
12097
11999
11907
11804
11701
11674
11703
11800
11939
12086
12240
12588
12648
12536
12415
12354
12261
12226
12189
12152
12138
12116
12031
12031
12022
12080
12173
12318
12240
12153
12159
12158
12151
12260
12389
12489
12597
12712
12883
12929
12850
12760
12714
12649
12561
12478
12423
12415
12289
11439
10874
10437
10209
10279
10874
11087
11282
11522
11728
11939
12244
12335
12403
12478
12570
12668
12677
12679
12675
12658
12689
12655
12648
12624
12618
12631
12504
12345
12249
12192
12179
12197
12108
12010
11942
11928
11927
11851
11888
11925
11981
12040
11967
11924
11946
12007
12123
12286
12328
12349
12377
12400
12435
12315
12189
12102
12103
12133
12233
12213
12194
12174
12138
12046
11905
11971
12004
12033
12067
12263
12328
12400
12385
12352
12366
12317
12285
12232
12151
12092
12068
12081
12038
12056
12030
12128
12193
12254
12238
12178
12223
12292
12298
12269
12252
12201
12177
12132
12041
11977
11937
11901
11906
11885
11837
11853
11893
11956
11931
11884
11998
12156
12458
12555
12718
12838
12882
12896
12769
12704
12641
12625
12582
12650
12720
12727
12538
12216
11774
10782
10376
10156
10088
10189
10804
11148
11446
11712
12050
12411
12564
12781
12908
12996
13050
13102
13110
13149
13157
13108
12933
12887
12916
12936
12957
12849
12614
12451
12219
11988
11778
11387
11245
11138
11013
11050
11137
11253
11323
11342
11385
11511
11772
11859
11954
12037
12132
12360
12548
12664
12726
12736
12749
12661
12656
12644
12614
12578
12542
12533
12513
12487
12440
12412
12341
12295
12275
12243
12181
12239
12280
12301
12319
12344
12357
12324
12238
12155
12093
12095
12078
12086
12126
12107
12067
11930
11904
11928
11953
11936
12016
12095
12119
12142
12183
12287
12498
12450
12321
12215
12116
12034
11753
11671
11701
11801
11965
12320
12389
12438
12407
12333
12412
12460
12486
12430
12376
12387
12443
12298
12239
12239
12233
12158
12121
11998
11795
11570
11303
10902
10880
10871
11001
11169
11701
11893
12142
12355
12477
12606
12635
12639
12671
12689
12637
12687
12639
12599
12534
12535
12474
12433
12350
12312
12299
12327
12206
12147
12073
12000
11951
12014
12033
12101
12214
12290
12275
12275
12370
12496
12593
12602
12633
12615
12604
12622
12659
12818
12834
12688
12498
12278
12097
11989
11955
11816
11651
11487
11222
11088
11041
11022
11012
10997
10986
10986
11009
11044
11058
11381
11627
11856
12061
12320
12607
12699
12821
12871
12914
12966
12962
12932
12966
12971
12923
12760
12696
12640
12593
12600
12581
12527
12515
12511
12455
12362
12186
12139
12113
12075
12019
12043
12076
12054
12013
11968
11987
12070
12090
12111
12111
12066
12078
12185
12249
12359
12468
12527
12583
12579
12637
12661
12650
12533
12510
12450
12357
12250
12246
12238
12248
12334
12320
12234
11832
11530
11233
11006
10797
10438
10460
10607
10895
11284
11673
12188
12286
12344
12382
12378
12326
12378
12517
12634
12764
12965
13281
13403
13516
13546
13495
13233
13085
12927
12773
12771
12896
12872
12738
12439
12100
11841
11289
10998
10796
10606
10431
10064
9893
9799
9810
9817
9873
9956
9990
10049
10122
10206
10333
10870
11254
11763
12368
12922
13380
14032
14234
14308
14342
14306
14128
13956
13752
13506
13302
12938
12716
12595
12506
12453
12453
12531
12565
12593
12567
12534
12534
12511
12474
12420
12423
12454
12338
12243
12163
12065
11925
11757
11764
11906
12112
12266
12381
12326
12278
12270
12237
12182
12186
12122
12016
12003
11943
12031
12202
12328
12364
12362
12421
12351
12258
12170
12083
12019
11992
12000
11979
11987
12034
12016
11938
11742
11597
11339
11006
10586
10581
10671
10918
11277
12052
12499
12930
13253
13413
13552
13541
13474
13387
13287
13177
13019
12961
12942
13063
13169
13127
12240
11428
10542
9754
9058
8587
8529
8875
9341
9925
10577
11560
11865
12186
12568
12890
13068
13058
13069
13074
13173
13231
13512
13762
13999
14165
14267
14323
14137
13911
13647
13470
13231
12532
12204
11924
11617
11358
11292
11371
11358
11199
10889
10470
9687
9401
9205
9155
9431
9951
10512
11053
11626
12068
12465
13246
13560
13691
13684
13692
13655
13561
13496
13396
13245
13088
12631
12334
12032
11880
11754
11309
11211
11203
11375
11614
12097
12177
12254
12368
12509
12614
12680
12638
12693
12701
12551
12405
12448
12515
12581
12534
12436
12263
12090
11932
11865
11802
11364
11216
11180
11265
11348
11689
11917
12113
12312
12451
12554
12860
12967
13013
13017
12907
12803
12753
12770
12750
12730
12788
12795
12613
12456
12421
12495
12537
12414
12231
11963
11654
11350
10924
10788
10743
10819
10940
10974
10879
10765
10668
10654
10949
11145
11400
11583
11836
12127
12669
12810
13064
13355
13638
13974
14051
14164
14291
14327
14222
13894
13682
13411
13145
12893
12414
12171
11920
11655
11338
10788
10566
10345
10190
10135
10107
9986
9811
9626
9571
9655
10044
10692
11523
12453
13247
14193
14446
14644
14704
14656
14440
14233
13952
13618
13384
13212
12619
12134
11719
11263
10887
10289
10060
9792
9491
9246
9076
9065
9348
9974
10748
11440
12152
13058
13290
13489
13693
13872
14116
14072
13892
13676
13464
13293
12974
12766
12613
12577
12616
12763
12794
12782
12742
12720
12730
12540
12388
12161
11947
11799
11703
11728
11841
11849
11761
11738
11735
11735
11617
11569
11794
12267
12304
12283
12179
12042
11719
11718
11775
11908
12013
12043
12077
12144
12186
12244
12293
12253
12171
11997
11714
11470
11311
11365
11584
11851
12118
12495
13116
13202
13199
13167
13179
13261
13192
13010
12884
12796
12704
12506
12295
12131
12048
11941
11652
11463
11233
10995
10852
10848
11049
11074
11040
11009
11058
11224
11342
11563
11883
12076
12030
11976
12035
12136
12168
12270
12659
12979
13319
13661
14035
14268
14210
14115
13974
13790
13562
13137
12851
12523
12180
11769
10810
10283
9783
9402
9393
9552
9754
9986
10243
10560
10925
11610
11746
11789
11788
11718
11636
11721
11880
12084
12374
12748
13469
13601
13607
13484
13288
13096
13015
12974
12903
12765
12681
12845
12955
13015
13049
13033
13142
13061
12937
12778
12582
12082
11868
11772
11788
11904
12074
12226
12352
12546
12695
12807
12595
12458
12329
12195
11972
11721
11549
11536
11506
11508
11537
11395
11216
11026
10931
11063
11436
12139
12513
12778
12890
12904
12835
12711
12549
12410
12335
12178
12129
12082
12096
12162
12161
12226
12220
12185
12200
12226
12221
12225
12214
12122
12011
11897
11497
11109
10711
10317
10063
10004
10158
10398
10685
11027
11633
11873
12149
12451
12738
12976
12943
12866
12914
13005
13135
13060
12989
12993
12981
12922
12955
13024
13092
13171
13151
13041
12836
12635
12428
12210
11997
11822
11750
11872
12084
12252
12302
12298
12361
12384
12456
12491
12245
12059
11982
11971
11943
11940
12015
11968
11945
11989
12035
12138
12222
12302
12363
12414
12443
12468
12442
12423
12417
12476
12779
12825
12670
12540
12399
12177
11868
11610
11494
11469
11522
11791
11910
11967
11934
11793
11580
11527
11461
11414
11380
11435
11559
11701
11939
12269
12504
12561
12588
12588
12555
12571
12634
12697
12700
12638
12551
12543
12484
12401
12353
12353
12218
11723
11577
11548
11616
11806
12055
12159
11976
11662
11247
10877
10485
10386
10416
10603
10831
11022
11565
11941
12328
12609
12738
12862
12885
12798
12733
12760
12847
12888
12837
12781
12735
12779
12985
13036
13073
13098
13117
13037
12841
12683
12602
12590
12545
12391
12412
12452
12409
12347
12199
12192
12211
12198
12203
12136
12106
12094
12117
12115
12099
11833
11650
11572
11671
11758
11734
11695
11674
11722
11717
11721
11890
11916
11951
11990
12018
12154
12225
12330
12418
12470
12434
12361
12334
12525
12709
12900
12890
12751
12575
12382
12186
11872
11732
11544
11483
11469
11545
11767
11725
11601
11468
11343
11063
11038
11093
11222
11422
11723
12280
12565
12868
13088
13242
13391
13430
13383
13341
13268
12971
12791
12623
12561
12527
12362
11956
11913
11997
12074
12067
11693
11585
11591
11601
11563
11555
11876
12180
12439
12604
12706
12886
13031
13168
13232
13165
12819
12656
12473
12213
11998
11609
10904
10851
10895
10917
10891
10699
10648
10600
10625
10805
11017
11444
11892
12381
12826
13090
13458
13475
13361
13150
12908
12704
12062
11640
11235
10879
10654
10373
10384
10585
10945
11515
12703
12993
13178
13312
13408
13455
13435
13284
13061
12853
12787
12627
12624
12668
12812
12921
13000
13037
13063
13066
12941
12920
12785
12656
12532
12468
12409
12192
12056
11931
11791
11693
11641
11481
11364
11255
11129
11011
10912
10944
11080
11259
11430
11596
11977
12147
12292
12443
12607
12810
12830
12921
12978
13022
13015
12832
12671
12527
12404
12272
12097
12107
12143
12205
12188
12113
12015
11898
11703
11437
11275
11445
11672
11918
12249
12613
12956
13011
13092
13224
13282
13372
13288
12997
12780
12600
12466
12096
11844
11524
11175
10823
10205
10049
10034
10106
10154
10164
10515
10951
11484
12093
12606
13363
13587
13734
13877
14003
14074
14131
14087
14018
13893
13747
13471
13306
13041
12704
12244
11010
10308
9754
9441
9231
9105
9137
9340
9694
10064
10388
10630
11186
11310
11420
11623
11915
12229
12718
12827
12868
13010
13269
13816
14186
14464
14402
14176
13992
13585
13344
13122
12840
12507
12067
12073
12134
12051
11969
11762
11668
11527
11371
11181
11086
10998
11036
11048
11059
11116
11593
11824
12069
12328
12559
12748
12793
12757
12642
12502
12373
12290
12353
12387
12472
12521
12386
12420
12496
12573
12672
12845
13263
13313
13289
13345
13600
14356
14504
14470
14443
14375
14343
13993
13694
13395
13038
12607
11575
11160
10865
10524
10063
9469
8337
7997
7836
7677
7556
7598
7739
8004
8505
9189
9823
10461
11116
11729
12336
12871
13785
14313
14722
14875
14685
14049
13597
13119
12639
12188
11847
11834
12013
12229
12392
12536
12854
12988
13097
13098
13107
13073
12986
12939
12936
12988
13015
12908
12602
12325
12191
12108
12304
12518
12630
12564
12349
12103
11518
11271
11023
10897
10816
10590
10501
10401
10421
10662
11104
12081
12415
12630
12859
13109
13487
13680
13850
13958
14107
14410
14474
14416
14290
14151
13964
13690
13554
13295
12987
12645
12006
11597
11109
10664
10243
9761
9388
9072
8900
8950
9010
9178
9561
10119
10759
11309
11733
12000
12377
12458
12601
12767
13036
13306
13723
13809
13861
13890
13894
13961
14094
14126
13909
13526
13062
12175
11687
11314
11045
10766
10306
10317
10410
10510
10550
10577
11136
11559
11836
11997
12098
12098
12123
12073
12012
12148
12921
13321
13664
13855
13810
13625
13501
13331
13027
12721
12385
11766
11497
11286
11149
11098
11037
11320
11683
12131
12512
12863
13350
13495
13700
13831
13768
13193
12877
12641
12458
12261
11997
11475
11341
11207
11055
10849
10310
10000
9678
9468
9386
9388
9530
9893
10312
10830
11467
12922
13575
14122
14487
14660
14723
14646
14544
14430
14362
14249
13683
13293
12892
12577
12373
12017
11729
11467
11331
11229
11079
10655
10313
10005
9778
9721
9910
10287
10799
11705
12114
12548
13016
13362
13571
13616
13639
13635
13707
13818
13805
13660
13443
13251
13167
12954
12806
12668
12411
11990
11637
11139
10952
10724
10448
10203
10092
10018
10039
10165
10347
10843
11001
11193
11438
11761
12144
12836
13133
13424
13713
13815
13885
13922
14037
14176
14354
14400
13848
13507
13253
13032
12855
12353
12131
11969
11834
11773
11633
11362
11367
11322
11176
10862
10303
10136
9954
9781
9626
9602
9825
10176
10527
10929
11831
12260
12503
12552
12559
13168
13731
14168
14388
14475
14411
14112
13887
13709
13379
12991
12517
12497
12465
12297
12012
11778
11493
11181
10779
10461
10344
10474
10707
11063
11487
11977
12941
13255
13484
13636
13681
13613
13436
13355
13166
12926
12646
12001
11765
11616
11552
11528
11443
11172
11078
11048
11038
11066
11092
11099
11218
11496
11879
12204
12493
12719
12955
13168
13329
13551
13623
13517
13398
13423
13293
13147
12973
12689
12344
12039
11298
10844
10422
10125
10033
10614
11076
11507
11778
11909
11807
11339
11379
11549
11793
12151
12750
12985
13135
13276
13446
13778
13798
13714
13466
13118
12798
12458
12382
12320
12231
12073
11594
11307
11104
10959
10921
10964
10985
11059
11155
11257
11311
11495
11680
11854
11983
12043
12394
12462
12409
12344
12249
12204
12312
12429
12636
12955
13193
13162
13089
13049
13089
13147
13105
12853
12785
12758
12766
12751
12498
12278
12083
11874
11616
11402
11304
11481
11624
11662
11603
11694
11777
11829
11951
12095
12367
12664
12927
13032
13036
13060
13038
12945
12814
12658
12409
11445
10971
10815
10840
11099
11402
11891
11860
11793
11713
11641
11453
11348
11318
11471
11720
11953
12195
12644
13129
13407
13381
13233
13110
12948
12753
12552
12133
11963
11888
11908
11865
11688
11321
11113
10984
10826
10583
10255
10201
10360
10737
11272
11832
12806
13220
13513
13670
13788
13912
13900
13851
13753
13652
13509
13406
13249
12987
12625
12350
12261
12281
12217
12097
11927
11484
11204
10853
10448
10164
10020
10013
10140
10317
10524
10891
11994
12502
12824
13000
13124
13393
13412
13337
13303
13325
13314
13217
13190
13120
13051
13037
13142
13158
13178
13167
13061
12988
12902
12798
12692
12506
12294
11713
11428
11139
10839
10628
10572
10805
10832
10776
10706
10551
10316
10196
10210
10455
10876
11575
12029
12480
12889
13233
13496
13782
13872
13908
13975
13954
13765
13611
13421
13294
13202
13030
12529
12224
11897
11579
11344
10821
10676
10515
10460
10500
10709
11136
11534
11780
11917
11992
12209
12293
12388
12495
12650
12932
13003
13081
13117
13081
13039
12639
12367
12085
11720
11391
10999
10991
11061
11177
11288
11801
12005
12132
12336
12662
12940
13213
13321
13391
13420
13490
13471
13481
13516
13512
13365
13222
13161
12866
12255
11518
11011
10431
10130
9941
9913
9955
9974
10004
10066
10332
11259
11663
11991
12317
12492
12630
12770
12806
12865
12962
13059
13014
12875
12685
12579
12575
12511
12429
12401
12435
12485
12503
12523
12410
12270
12158
12053
12040
12196
12348
12483
12631
12737
12801
12765
12614
12500
12417
12346
12321
12294
12184
12034
11865
11708
11810
11925
11925
11810
11700
11582
11499
11462
11404
11392
11444
11419
11245
11146
11088
11326
11652
12096
12453
12684
12923
13047
13067
13053
13002
12975
12846
12701
12523
12331
12155
11987
12029
12069
12160
12254
12317
12341
12394
12421
12442
12447
12242
12168
12267
12408
12477
12367
12234
12107
11917
11743
11570
11498
11427
11348
11248
11134
10933
11013
11285
11650
12058
12644
12799
12920
12964
12967
13062
13045
13086
13067
13027
12925
12847
12807
12704
12550
12376
12166
11898
11815
11749
11715
11730
11787
11939
12101
12268
12323
12252
11598
11188
10707
10254
10072
10624
11091
11576
11926
12214
12801
12997
13123
13171
13183
13130
12952
12767
12505
12284
12138
11975
11949
11987
12080
12229
12339
12442
12560
12604
12661
12685
12676
12659
12761
12775
12710
12460
12283
12022
11737
11556
11549
11783
11845
11800
11764
11760
11738
11904
12118
12252
12265
12232
12239
12365
12492
12524
12469
12355
12382
12450
12537
12510
12420
12203
12165
12149
12110
12089
12175
12225
12230
12125
12007
11672
11589
11636
11675
11663
11701
11779
11862
11978
12116
12295
12617
12715
12758
12697
12587
12419
12004
11798
11631
11495
11430
11496
11514
11645
11827
12060
12416
12459
12468
12516
12610
12758
12823
12762
12764
12814
12860
12740
12701
12620
12551
12502
12451
12372
12252
12142
12086
12052
12021
11997
11988
11928
11902
12029
12143
12250
12370
12418
12361
12262
12307
12335
12316
12223
12162
12215
12212
12119
12044
11958
11998
12017
12054
11990
11957
12174
12256
12208
12072
11807
11581
11289
11227
11276
11431
11634
12010
11996
11925
11905
11946
12016
12055
12063
12008
11990
11949
11970
12084
12343
12596
12735
12915
12981
12952
12865
12728
12649
12617
12592
12562
12550
12481
12414
12332
12208
12112
12006
11969
12000
12012
11928
11860
11804
11792
11921
12009
12088
12088
12162
12207
12229
12195
12141
12057
12047
12080
12220
12357
12436
12527
12514
12411
12332
12257
12273
12203
12152
12090
12070
12032
11835
11728
11636
11635
11680
11968
12142
12290
12299
12255
12256
12284
12287
12295
12303
12310
12294
12226
12158
12035
11929
11880
11858
11779
11614
11401
11201
11050
11190
11530
11961
12301
12469
12481
12501
12495
12443
12468
12603
12641
12631
12598
12591
12451
12509
12654
12714
12700
12639
12443
12334
12273
12174
12078
12080
12076
12060
12047
12061
12058
11954
11867
11808
11770
11792
11820
11952
12107
12246
12318
12370
12344
12343
12332
12236
12177
12060
12099
12153
12218
12229
12241
12221
12211
12229
12221
12275
12281
12239
12248
12238
12213
12013
11956
11951
11954
11976
12045
12122
12182
12216
12206
12257
12428
12471
12487
12541
12484
12271
12076
11815
11596
11596
11705
11888
11938
12037
12130
12192
12107
12038
11999
12054
12140
12258
12286
12320
12362
12416
12416
12453
12466
12444
12404
12348
12124
12046
12000
11926
11972
12023
12093
12095
12036
11931
11816
11739
11767
11919
12073
12192
12265
12430
12488
12552
12550
12498
12467
12437
12414
12368
12344
12196
12162
12085
11987
11893
11825
11776
11774
11814
11895
11946
11972
12010
12099
12139
12170
12225
12335
12366
12345
12308
12281
12229
12241
12240
12197
12188
12195
12220
12261
12329
12336
12294
12296
12245
12207
12207
12216
12247
12245
12253
12259
12264
12226
12061
12049
12010
11962
11952
11979
12011
12075
12068
12019
11983
11828
11882
11969
12008
12075
12263
12347
12450
12462
12424
12381
12382
12316
12333
12320
12297
12241
12220
12172
12114
12051
11969
12076
12203
12243
12181
12118
12091
12061
12091
12087
12029
11948
12048
12140
12236
12297
12197
12079
11963
11922
11973
11952
11897
12016
12138
12216
12256
12245
12212
12227
12246
12268
12291
12377
12427
12393
12384
12374
12327
12339
12370
12399
12359
12301
12254
12195
12065
11970
11921
11837
11896
12008
12048
12088
12028
11996
11960
11961
11951
11928
12129
12226
12325
12370
12385
12239
12240
12243
12237
12168
12112
12113
12074
12056
12035
12067
12087
12115
12196
12269
12306
12298
12226
12189
12220
12279
12268
12205
12145
12158
12182
12217
12221
12220
12236
12227
12156
12156
12193
12171
12073
11946
11969
12074
12076
12138
12189
12203
12214
12179
12178
12199
12213
12233
12246
12267
12297
12292
12281
12248
12263
12240
12229
12196
12185
12208
12199
12167
12110
12069
12032
12011
12006
12066
12129
12176
12127
12071
12089
12106
12094
11937
11889
11900
12038
12105
12172
12167
12201
12243
12259
12244
12260
12274
12265
12257
12185
12152
12113
12124
12120
12140
12182
12191
12157
12120
12119
12191
12198
12227
12236
12249
12268
12278
12231
12188
12195
12189
12146
12132
12148
12188
12212
12182
12112
12072
12003
11998
12096
12169
12223
12219
12207
12204
12227
12217
12191
12176
12152
12160
12219
12213
12188
12172
12152
12137
12135
12117
12125
12125
12136
12054
11995
11984
12018
12121
12163
12170
12158
12156
12155
12135
12196
12198
12220
12182
12201
12192
12208
12224
12243
12266
12280
12212
12206
12247
12243
12241
12147
12144
12154
12124
12133
12127
12099
12084
12108
12093
12078
12068
12040
12066
12126
12134
12186
12194
12225
12258
12265
12257
12199
12182
12145
12139
12127
12106
12144
12151
12185
12207
12246
12251
12246
12238
12195
12189
12209
12117
12024
12028
11988
12010
12100
12145
12187
12248
12243
12142
12158
12192
12225
12288
12304
12168
12174
12162
12163
12184
12224
12256
12259
12217
12145
12115
12139
12161
12169
12149
12130
12200
12243
12248
12216
12201
12037
12023
12065
12131
12170
12167
11996
11949
11915
11887
11908
12003
12029
12055
12076
12076
12196
12264
12294
12298
12345
12356
12363
12397
12389
12320
12308
12295
12239
12216
12221
12189
12198
12066
12065
12046
12037
12090
12179
12236
12254
12258
12234
12155
11816
11607
11529
11633
11829
12187
12256
12322
12329
12339
12368
12326
12287
12285
12290
12314
12239
12196
12204
12199
12207
12236
12231
12227
12188
12177
12142
12120
12146
12179
12185
12214
12194
12167
12177
12154
12127
12130
12149
12098
12083
12110
12136
12135
12075
12074
12136
12128
12145
12197
12219
12213
12224
12212
12179
12190
12235
12262
12286
12342
12323
12261
12260
12258
12243
12193
12169
12135
12116
12122
11931
11812
11668
11656
11745
11920
12019
12079
12169
12233
12268
12207
12217
12234
12195
12181
12260
12299
12305
12323
12309
12326
12318
12312
12286
12256
12252
12226
12193
12105
12129
12153
12094
12110
12136
12158
12177
12194
12099
12105
12164
12196
12215
12169
12111
12110
12137
12153
12114
12105
12108
12139
12168
12173
12234
12199
12098
12046
12047
12082
12099
12115
12170
12226
12258
12211
12198
12226
12264
12266
12232
12196
12232
12208
12223
12218
12194
12172
12146
12076
12058
12100
12139
12121
12061
12099
12105
12107
12130
12156
12172
12189
12148
12113
12104
12176
12252
12239
12235
12186
12216
12257
12262
12224
12249
12240
12190
12159
12166
12154
12133
12043
11984
11991
12034
12066
12133
12195
12188
12200
12171
12189
12194
12203
12191
12188
12184
12218
12207
12223
12198
12206
12203
12201
12164
12183
12196
12197
12163
12112
12142
12191
12182
12240
12254
12243
12222
12182
12160
12180
12205
12147
12127
12113
12083
12038
12032
12073
12078
12064
12065
12081
12144
12147
12168
12140
12042
12032
12076
12105
12133
12183
12186
12180
12188
12164
12167
12213
12265
12281
12315
12310
12325
12266
12286
12270
12212
12137
12089
12099
12116
12150
12178
12120
12071
12093
12069
12048
12084
12130
12151
12169
12150
12109
12121
12189
12116
12185
12203
12252
12270
12238
12239
12225
12235
12225
12194
12197
12203
12198
12179
12107
12094
12111
12088
12101
12139
12215
12200
12166
12130
12110
12164
12167
12176
12183
12198
12221
12222
12213
12201
12209
12209
12198
12189
12206
12193
12169
12118
12069
12066
12091
12075
12120
12109
12096
12036
12031
12060
12130
12181
12152
12190
12251
12277
12252
12227
12231
12228
12203
12193
12137
12134
12166
12205
12207
12117
12069
12055
12055
12079
12172
12214
12204
12179
12156
12163
12189
12160
12174
12198
12184
12168
12198
12204
12204
12237
12227
12185
12171
12156
12169
12187
12130
12133
12108
12060
12058
12178
12182
12194
12181
12128
12086
12158
12169
12176
12222
12252
12265
12237
12226
12174
12163
12144
12124
12107
12127
12145
12159
12088
12084
12130
12144
12133
12152
12229
12262
12307
12243
12156
12138
12174
12182
12227
12248
12209
12137
12097
12055
12043
12090
12124
12118
12135
12160
12131
12080
12092
12114
12119
12124
12140
12189
12219
12249
12246
12222
12242
12225
12229
12205
12243
12268
12265
12228
12208
12209
12205
12120
12047
12062
12090
12125
12113
12030
11997
11946
11955
12026
12121
12154
12183
12185
12154
12207
12220
12237
12220
12255
12260
12246
12247
12219
12202
12230
12232
12212
12208
12200
12192
12136
12113
12102
12120
12070
12108
12156
12166
12160
12159
12118
12117
12154
12189
12185
12153
12158
12175
12186
12220
12192
12173
12180
12180
12147
12153
12183
12172
12182
12107
12117
12123
12091
12132
12168
12199
12225
12214
12142
12156
12181
12185
12166
12199
12228
12221
12202
12205
12194
12211
12179
12174
12143
12161
12152
12168
12122
12071
12069
12087
12066
12075
12129
12205
12196
12147
12130
12145
12169
12169
12173
12208
12220
12210
12215
12222
12194
12187
12194
12147
12149
12178
12136
12111
12066
12041
12068
12054
12087
12137
12170
12194
12133
12137
12140
12184
12170
12160
12213
12206
12208
12215
12225
12201
12224
12199
12162
12145
12156
12136
12114
12079
12115
12123
12116
12145
12155
12174
12205
12205
12153
12137
12160
12170
12222
12299
12249
12216
12191
12188
12152
12151
12161
12089
12042
12068
12141
12143
12134
12099
12091
12071
12058
12113
12188
12205
12199
12161
12139
12163
12201
12217
12252
12256
12240
12193
12225
12229
12203
12203
12200
12182
12140
12155
12186
12186
12127
12093
12092
12075
12093
12152
12176
12199
12167
12147
12144
12169
12186
12179
12190
12211
12226
12204
12218
12202
12182
12178
12171
12151
12145
12138
12129
12095
12051
12102
12096
12092
12143
12176
12167
12192
12126
12127
12149
12179
12215
12230
12216
12217
12197
12203
12205
12203
12193
12195
12181
12169
12146
12148
12153
12092
12074
12102
12092
12158
12235
12254
12263
12204
12164
12184
12224
12210
12249
12249
12246
12235
12204
12175
12141
12113
12083
12035
12003
12041
12043
12044
12026
12025
12012
12035
12034
12054
12098
12127
12143
12109
12108
12131
12196
12207
12261
12289
12303
12329
12328
12301
12292
12303
12268
12269
12247
12241
12212
12193
12180
12138
12130
12143
12175
12173
12176
12133
12089
12036
12007
12067
12071
12121
12165
12188
12141
12184
12205
12227
12224
12213
12179
12178
12161
12206
12210
12182
12124
12103
12127
12114
12131
12176
12155
12112
12070
12051
12134
12130
12118
12166
12195
12239
12232
12216
12226
12233
12225
12227
12205
12199
12191
12191
12226
12266
12294
12270
12220
12240
12276
12282
12267
12205
12179
12106
12090
12084
12102
12071
12011
11889
11857
11800
11729
11675
11657
11754
11898
12063
12203
12276
12287
12330
12339
12335
12313
12362
12403
12396
12392
12342
12354
12430
12407
12336
12282
12228
12074
12020
11975
12013
12074
12156
12172
12162
12171
12229
12265
12137
12115
12125
12119
12121
12163
12194
12190
12199
12161
12151
12153
12127
12131
12143
12128
12198
12205
12222
12252
12274
12237
12237
12206
12201
12162
12166
12170
12158
12161
12147
12070
12138
12170
12150
12090
12028
11958
12033
12079
12090
12110
12188
12214
12234
12268
12232
12206
12268
12260
12216
12201
12280
12329
12272
12206
12226
12208
12206
12263
12276
12267
12215
12149
12068
11927
11929
11964
12054
12173
12218
12238
12295
12301
12304
12356
12406
12359
12288
12188
12040
11814
11776
11808
11834
11822
11798
11845
11895
11942
12030
12144
12200
12268
12314
12366
12419
12533
12579
12573
12600
12536
12494
12417
12326
12248
12143
12034
11927
11941
11865
11821
11803
11915
12055
12139
12141
12150
12145
12152
12205
12216
12203
12163
12258
12281
12317
12332
12300
12273
12220
12190
12198
12182
12187
12189
12146
12055
12014
11988
11941
11963
11937
11946
11981
12049
12151
12152
12237
12303
12316
12378
12374
12420
12384
12295
12235
12265
12289
12268
12182
12080
11964
11946
11901
11865
11929
11976
12068
12167
12213
12227
12258
12386
12454
12561
12572
12598
12637
12614
12589
12585
12575
12469
12135
11945
11770
11599
11537
11707
11767
11763
11634
11579
11554
11590
11711
11869
11970
12048
12164
12184
12257
12381
12475
12520
12586
12615
12650
12624
12552
12466
12460
12401
12375
12377
12328
12270
12256
12201
12140
12195
12329
12232
12008
11643
11377
11293
11397
11499
11616
11720
11822
12044
12150
12173
12208
12247
12274
12353
12376
12402
12393
12363
12366
12363
12346
12260
12274
12237
12185
12223
12217
12246
12219
12172
12139
12200
12262
12298
12292
12308
12287
12287
12292
12310
12311
12368
12428
12409
12193
12097
12034
12065
12093
12073
12071
12077
12064
12107
12147
12155
12125
12134
12184
12245
12273
12108
12119
12130
12155
12085
11976
11875
11824
11825
11831
11903
11925
11900
11949
11984
12025
12208
12262
12318
12374
12392
12428
12477
12472
12446
12472
12508
12283
12226
12118
11954
11847
11732
11812
11914
11999
12015
12011
12049
12100
12129
12170
12168
12212
12249
12195
12158
12175
12206
12245
12279
12296
12351
12445
12514
12521
12491
12445
12436
12519
12560
12538
12484
12490
12438
12317
12294
12273
12236
12139
11783
11630
11500
11470
11488
11485
11326
11266
11230
11278
11426
11685
11821
12014
12197
12381
12861
13028
13083
13030
13015
13008
12858
12827
12802
12745
12641
12573
12565
12500
12496
12435
12346
12116
11988
11866
11691
11491
11138
11133
11233
11434
11662
11739
11745
11686
11695
11767
11837
11902
12006
12114
12220
12303
12457
12615
12735
12766
12802
12820
12854
12845
12771
12671
12566
12484
12457
12363
12328
12263
12060
11913
11720
11517
11396
11420
11428
11458
11540
11686
11836
12001
12088
12160
12239
12345
12398
12446
12446
12421
12363
12252
12162
12145
12123
12138
12183
12282
12517
12605
12743
12829
12898
12934
12872
12781
12695
12588
12411
12362
12376
12351
12299
12230
11965
11675
11287
10923
10602
10307
10325
10455
10686
10964
11258
11845
12134
12320
12482
12597
12643
12606
12565
12552
12574
12646
12641
12664
12736
12765
12869
13035
13055
13037
13033
12967
12858
12851
12817
12763
12709
12638
12651
12563
12405
12080
11759
11371
11152
10919
10747
10694
10740
10948
11107
11270
11373
11443
11594
11738
11851
11940
12062
12328
12410
12452
12468
12541
12681
13013
13103
13055
12924
12735
12639
12606
12495
12360
12269
12177
12021
11957
11956
11926
11929
12061
12119
12100
12013
11904
11541
11386
11295
11353
11451
11624
11968
12123
12215
12265
12343
12382
12385
12375
12393
12395
12429
12494
12507
12453
12471
12509
12633
12695
12750
12744
12711
12597
12514
12459
12432
12359
12347
12438
12500
12574
12580
12554
12354
12216
12024
11839
11667
11498
11467
11529
11542
11571
11664
11890
12026
12232
12355
12330
12274
12059
12037
12088
12139
12136
12440
12716
12964
13096
13179
13147
13103
13032
12829
12554
12376
12111
12030
11996
12042
12153
12300
12262
12161
11910
11529
11119
10567
10422
10284
10245
10314
10745
10948
11173
11265
11298
11147
11144
11189
11247
11341
11480
12068
12467
12807
13030
13321
14049
14424
14658
14626
14438
14149
13537
13257
13059
12989
12951
12718
12587
12466
12300
12143
11851
11009
10729
10489
10309
10214
10351
10613
10964
11297
11623
12186
12414
12574
12736
12782
12780
12712
12662
12664
12704
12748
12787
12826
12783
12757
12701
12703
12635
12576
12550
12494
12472
12603
12645
12670
12718
12721
12697
12681
12653
12593
12424
12145
11728
11559
11432
11346
11263
11061
11032
10981
11041
11132
11256
11394
11370
11376
11414
11444
11650
11881
12112
12300
12422
12753
12848
12906
12966
13057
13124
13102
13110
13063
13042
13067
13096
13091
13076
12904
12703
12495
12092
12027
12007
12085
12209
12085
11852
11613
11345
10969
10558
10202
10150
10162
10373
10638
11376
11546
11653
11721
11878
12264
12338
12497
12675
12860
13006
13163
13146
13088
13066
13074
13011
12978
12947
12928
12825
12646
12218
11994
11837
11679
11562
11563
11721
11842
11912
12029
12155
12149
12146
12197
12243
12328
12395
12404
12460
12554
12605
12662
12681
12761
12870
12933
13021
13328
13472
13591
13635
13544
13227
13050
12853
12515
12107
11762
11136
10829
10677
10520
10363
9957
9745
9632
9505
9462
9474
9580
9773
10106
10610
11132
11560
11731
11861
11829
11930
12144
12454
13179
13472
13695
13810
13782
13739
13658
13619
13544
13454
13363
13176
13008
12889
12847
12827
12861
12848
12795
12713
12565
12424
12315
12263
12270
12324
12402
12504
12527
12479
12335
12155
12023
11733
11509
11374
11215
11041
10969
11001
11038
11145
11262
11456
11560
11642
11689
11787
11939
12314
12560
12813
12991
13069
13209
13232
13194
13193
13285
13312
12982
12660
12421
12232
11992
11653
11578
11509
11485
11589
11836
11849
11791
11716
11626
11444
10647
10349
10264
10407
10606
11221
11648
12166
12611
12920
13109
13419
13498
13487
13459
13378
13339
13310
13234
13094
12886
12678
12260
12060
11848
11606
11334
10868
10751
10764
10775
10765
11459
11989
12343
12578
12759
12907
13049
12996
12988
13020
13064
13089
13074
13200
13339
13292
13089
12632
12492
12536
12668
12773
12712
12547
12424
12284
12069
11650
11378
11131
10943
10688
10394
10111
10100
10168
10334
10526
11114
11514
11977
12220
12216
12111
11971
12095
12350
12721
13053
13325
13225
13183
13085
13010
12806
12369
12140
11921
11676
11354
11196
11443
11730
11820
11859
11846
11954
12137
12292
12387
12509
12815
12915
12979
12976
12943
12834
12749
12748
12784
12733
12709
12957
13190
13395
13445
13382
13099
12955
12776
12548
12304
11870
11647
11488
11489
11593
11712
11715
11472
11272
11099
10901
10623
10641
10711
10881
11106
11339
11957
12287
12605
12882
13162
13233
13088
12783
12359
11926
11228
10976
10786
10697
10704
10838
11255
11589
11983
12391
12838
13584
13608
13506
13338
13063
12681
12072
11925
11850
11833
11882
11879
11952
12157
12306
12350
12441
12930
13069
13058
13008
12968
13027
13054
13126
13130
13082
12940
12789
12620
12483
12476
12407
12179
12084
11933
11779
11663
11341
11134
10997
10923
10925
10915
11168
11338
11456
11444
11380
11173
11136
11099
11162
11271
11723
12046
12291
12458
12621
12881
13442
13564
13666
13675
13612
13313
13147
13030
12922
12807
12651
12521
12502
12542
12650
12772
12765
12720
12484
12164
11761
11400
10950
10950
11119
11333
11587
11817
11800
11797
11724
11617
11424
11257
11065
10989
11016
11027
11047
11165
11457
11883
12315
12705
12876
12944
12898
12827
12804
12761
12715
12579
12449
12369
12160
12106
12038
11983
12002
12125
12151
12170
12193
12155
12053
11781
11807
11852
11841
11761
12004
12287
12511
12712
12815
12859
12748
12642
12555
12532
12531
12856
12991
13070
13058
12954
12736
12708
12691
12599
12534
12508
12476
12461
12396
12383
12363
12544
12513
12469
12406
12338
12230
11929
11787
11566
11309
11010
10689
10561
10511
10484
10399
10330
10479
10629
10769
10953
11183
11821
12268
12684
13070
13432
13810
13855
13870
13836
13643
13413
12991
12830
12715
12649
12588
12654
12769
12768
12710
12585
12547
12536
12431
12261
12137
12036
11735
11690
11740
11802
11836
11853
11657
11337
11087
11006
11069
11548
11851
12110
12218
12149
11473
11082
10787
10699
10814
10977
11561
11866
12157
12515
12811
13160
13108
13142
13336
13631
13774
13838
13784
13692
13587
13477
12948
12663
12407
12163
11867
11062
10596
10180
9788
9383
9129
9040
9155
9586
10265
11030
12421
12973
13494
13851
14112
14359
14225
13889
13542
13300
13137
12951
12936
12949
12923
12825
12794
12615
12473
12336
12147
11927
11509
11207
10940
10835
10914
11609
11945
12064
12092
12368
12742
13034
12955
12791
12633
12507
12329
12106
11937
11904
11954
11918
11594
11367
11111
10876
10715
10448
10295
10280
10366
10461
10956
11467
11975
12488
12915
13223
13067
12920
12890
12927
13014
13178
13201
13207
13281
13427
13615
13671
13337
12989
12695
12421
12141
12080
11995
11930
11702
11238
11058
10947
10971
11174
11471
11904
12158
12414
12701
12914
13118
13147
13010
12792
12604
12500
12366
12244
12187
12178
12131
12056
12019
11960
11831
11706
11628
11563
11382
11092
10770
10463
9912
9907
10259
10882
11555
12137
12628
13322
13595
13787
13819
13661
13438
13179
13213
13175
13120
13144
12902
12617
12269
11884
11494
11056
11033
11118
11222
11369
11492
11786
11844
11952
11990
12011
12300
12330
12268
12248
12296
12348
12681
12893
13154
13317
13271
13266
13230
13104
12931
12679
12504
12440
12422
12553
12777
12875
12759
12846
12967
12852
12620
12133
11837
11477
11116
10797
10551
10059
9971
9992
9948
9897
9971
10176
10389
10554
10763
11233
11579
12077
12516
12936
13603
13634
13511
13351
13242
13142
13060
12972
12668
12337
12024
11932
12043
12223
12505
12847
13391
13592
13769
14071
14343
14493
14054
13568
13052
12530
12002
11097
10629
10162
9849
9548
9272
8961
8761
8764
9048
9475
10026
10586
11692
12276
12791
13191
13509
13820
13686
13620
13641
13718
13665
13233
13092
13114
13095
13010
13097
13113
13088
12957
12709
12429
12166
12133
12143
12105
12037
11839
11685
11561
11427
11371
11862
12149
12323
12480
12739
13039
13126
13067
12977
12944
12981
13036
12898
12610
12302
11972
11604
10462
9837
9151
8448
7847
7539
7699
8260
9006
9862
10759
11586
12198
13018
13344
13665
13931
14096
14181
14476
14648
14686
14629
14585
13939
13463
12950
12500
12234
12138
12090
12058
12135
12270
12386
12302
12122
11884
11776
11755
11508
11365
11271
11304
11511
11776
12380
12688
12904
13010
12961
12776
12544
12209
11898
11593
11357
11061
11152
11294
11453
11564
11566
11563
11567
11639
11815
11933
11903
11853
11813
11889
12019
12366
12459
12568
12826
13149
13325
13120
12790
12427
12396
12596
13279
13530
13618
13524
13348
12977
12796
12568
12245
12035
11997
12215
12335
12243
12007
11808
11405
11134
10871
10659
10508
10602
10775
10862
10938
11009
11132
11230
11325
11402
11453
11481
11739
11915
12102
12261
12451
12677
12813
12897
13190
13472
13676
13553
13371
13225
13128
12949
12522
12302
12156
12095
12110
12180
12303
12314
12293
12280
12250
12450
12650
12962
13272
13482
13519
13132
12943
12765
12610
12497
12114
11800
11456
11047
10594
10112
9518
9271
9082
9045
9271
9783
10403
11068
11657
11942
12444
12840
13179
13500
13751
13832
13753
13725
13711
13700
13606
13277
13077
12945
12901
12831
12710
12392
12105
11816
11480
11286
11406
11494
11504
11539
11575
11637
11840
11977
12134
12258
12336
12587
12575
12481
12410
12430
12440
12352
12229
12074
11913
11823
11626
11614
11794
12048
12348
12597
12581
12590
12658
12691
12691
12502
12442
12391
12357
12370
12240
12291
12390
12437
12380
12079
11905
11711
11415
11114
10912
10888
10998
11101
11190
11276
11445
11539
11522
11459
11426
11470
12064
12433
12815
13155
13423
13625
13652
13561
13327
13264
13457
13403
13271
13098
12867
12610
12087
11920
11849
11814
11791
11702
11707
11649
11635
11599
11487
11377
11592
11949
12250
12427
12163
11944
11693
11477
11405
11549
11711
11789
11988
12112
12156
11809
11607
11512
11431
11362
12064
12468
12822
12954
12953
12925
12894
12906
12852
12721
12557
12274
12276
12328
12268
12088
11999
11958
11875
11808
11808
11860
12065
12177
12292
12400
12564
12577
12545
12653
12747
12810
12809
12577
12397
12258
12162
12052
11900
11927
12037
12052
12077
12087
12149
12113
12097
12134
12210
12211
12170
12047
11890
11781
11722
11906
12219
12428
12514
12436
12076
11891
11765
11680
11589
11458
11305
11090
10883
10712
10576
10842
11242
11724
12168
12487
12810
12935
12995
12987
12972
13016
13134
13226
13357
13440
13487
13400
13297
13127
12916
12724
12558
12502
12350
12202
12024
11836
11425
11265
11073
10904
10833
10905
11188
11579
12117
12596
13153
13888
14013
13952
13692
13258
12519
12355
12153
11865
11514
11260
11196
11220
11121
10959
10723
9901
9483
9153
9006
9154
9633
10283
11142
12065
12756
13221
13850
14076
14191
14225
14184
13924
13726
13590
13466
13343
13264
13300
13341
13309
13264
13209
13076
12905
12690
12400
12022
11501
10041
9331
8860
8745
8932
9433
10276
11119
11577
11597
11804
12198
12531
12761
12924
13431
13728
13883
13798
13567
12946
12744
12616
12473
12426
12398
12306
12299
12338
12390
12374
12340
12212
12044
11931
11826
11708
11566
11585
11710
11866
11927
12126
12257
12424
12678
12960
12958
12927
12859
12707
12617
12631
12521
12331
11991
11722
11600
11501
11359
11158
11070
10934
10819
10810
10962
11208
11450
11667
12076
12342
12642
12868
13018
13132
13164
13195
13153
13131
13100
13284
13394
13425
13281
12891
11987
11623
11273
11003
10920
10968
11251
11458
11608
11716
11708
11679
11695
11710
11855
11984
12030
12223
12388
12570
12786
12966
12984
12827
12609
12354
12125
11921
12023
12107
12144
12216
12185
12094
12047
11930
11871
11877
12007
12154
12335
12413
12387
12251
12135
12198
12162
11982
11681
11058
10856
10712
10707
10828
11372
11793
12165
12455
12779
13109
13530
13644
13624
13557
13515
13422
13285
13104
12857
12669
12504
12177
12024
11945
11865
11758
11514
11292
11046
10748
10537
10485
10802
11370
11920
12357
12726
13008
13105
13177
13102
13038
13108
13151
13113
13039
12960
12895
12672
12520
12490
12478
12360
11958
11834
11745
11697
11627
11463
11200
11282
11367
11437
11536
11593
11400
11216
11124
11109
11164
11190
11288
11534
11907
12276
12953
13155
13340
13571
13679
13676
13737
13720
13613
13470
13368
13028
12845
12627
12338
11940
11166
10881
10635
10496
10501
10871
11037
11146
11312
11556
11836
11946
11939
11945
12105
12246
12379
12527
12663
12764
12793
12773
12672
12677
12636
12556
12444
12134
12040
12012
11919
11805
11674
11705
11888
12113
12310
12443
12539
12511
12391
12258
12103
11880
11901
11982
12030
12067
12125
12235
12357
12443
12461
12464
12483
12531
12698
12821
12846
12721
12139
11941
11772
11635
11586
11719
11828
11883
11964
12136
12317
12288
12243
12227
12208
12096
11479
11096
10879
10947
11177
11744
12028
12301
12524
12697
12894
13095
13201
13252
13248
13237
13040
12778
12484
12097
11855
11813
11851
11914
12034
12111
12135
12299
12306
12288
12189
11980
11631
11484
11140
10894
10812
10912
11233
11451
11759
12148
12585
13143
13345
13425
13379
13169
13117
12977
12779
12643
12528
12393
12103
11774
11421
11191
11092
10909
10869
10966
11092
11247
11492
12048
12217
12440
12634
12739
12824
12886
12938
12975
12946
12844
12654
12577
12573
12607
12630
12536
12352
12124
11934
11777
11546
11551
11711
11870
12001
11949
11662
11562
11582
11678
11899
12376
12633
12835
12952
12912
12794
12548
12362
12283
12302
12322
12415
12391
12396
12403
12364
12314
11994
11930
11879
11843
11833
11717
11541
11452
11420
11436
11354
11400
11551
11757
11875
11898
12149
12201
12309
12487
12658
12905
12952
12936
12848
12797
12728
12503
12333
12273
12238
12203
12020
11895
11765
11607
11439
11344
11425
11520
11599
11708
11852
12186
12384
12516
12625
12714
12851
12909
12902
12793
12680
12591
12494
12367
12325
12352
12418
12435
12399
12402
12399
12434
12293
11610
11190
10901
10897
11081
11474
11730
11996
12192
12253
12210
12279
12329
12319
12363
12387
12534
12559
12556
12551
12494
12268
12118
11946
11786
11720
11722
11950
12077
12135
12178
12250
12165
12106
12044
12032
12045
12189
12278
12380
12439
12410
12443
12473
12459
12433
12385
12266
11905
11834
11856
11918
11997
12098
12268
12336
12405
12483
12501
12292
12246
12178
12172
12241
12267
12321
12246
12109
11933
11815
11864
11979
12070
12203
12324
12511
12499
12492
12429
12292
12239
12176
12112
12027
11950
11932
11871
11829
11782
11750
11698
11765
12064
12182
12255
12291
12313
12342
12354
12379
12388
12409
12417
12461
12547
12549
12528
12439
12173
12062
11986
11957
11998
12044
11938
11834
11747
11722
11784
12062
12211
12360
12439
12375
12024
11882
11776
11765
11865
12348
12553
12587
12474
12295
12143
11874
11705
11540
11522
11706
12188
12297
12322
12383
12423
12500
12725
12754
12704
12576
12403
12141
12137
12138
12030
11975
11929
11749
11728
11795
11924
12032
12032
11968
12006
12132
12275
12403
12397
12327
12351
12392
12344
12255
12246
12260
12272
12236
12078
12088
12064
12010
11935
12004
12119
12230
12384
12463
12530
12649
12634
12603
12512
12384
11997
11857
11799
11783
11756
11729
11606
11634
11747
11891
11945
11867
11916
12079
12243
12390
12504
12574
12582
12584
12588
12545
12531
12564
12554
12492
12435
12286
12221
12071
11908
11874
11894
11908
11978
11978
11966
11916
11525
11350
11302
11295
11416
11615
12154
12295
12352
12385
12359
12268
12263
12292
12310
12359
12446
12490
12457
12383
12378
12382
12396
12415
12434
12418
12403
12404
12307
12281
12294
12279
12235
12122
12038
11958
11917
11894
11940
11997
12054
12056
12051
12040
12118
12150
12169
12148
12127
12044
12005
12030
12086
12129
12221
12221
12250
12242
12218
12213
12120
12113
12138
12113
12042
12127
12205
12284
12287
12269
12260
12205
12172
12114
11992
11973
11970
12015
12098
12230
12286
12294
12191
12130
12132
12230
12319
12415
12404
12361
12346
12351
12328
12317
12315
12287
12258
12188
11989
11820
11673
11598
11590
11693
11844
12013
12126
12174
12220
12253
12241
12279
12347
12405
12247
12206
12162
12232
12286
12294
12205
12153
12148
12071
11957
11869
11900
11984
12089
12131
12298
12288
12317
12287
12289
12271
12185
12175
12220
12257
12281
12210
12216
12249
12247
12264
12254
12230
12226
12258
12230
12197
12172
12188
12204
12195
12136
12103
12151
12198
12232
12281
12241
12127
12057
11998
11978
12032
12031
11991
12029
12045
12036
12072
12103
12143
12193
12206
12226
12239
12254
12276
12312
12339
12266
12237
12223
12247
12251
12203
12141
12146
12109
12070
12122
12234
12206
12213
12229
12278
12391
12594
12574
12467
12278
12035
11708
11790
11916
12036
12064
12027
12017
12027
11982
11926
11953
12111
12165
12183
12218
12230
12280
12288
12307
12330
12286
12238
12100
11993
11937
11892
11921
12042
12116
12206
12310
12407
12421
12327
12321
12278
12204
12216
12221
12193
12149
12105
12054
12033
12014
12009
12055
12128
12189
12275
12238
12201
12169
12180
12177
12206
12214
12209
12191
12217
12149
12174
12142
12104
12098
12168
12181
12151
12070
11990
12149
12213
12263
12261
12282
12212
12051
12102
12116
12152
12151
12134
12140
12136
12133
12148
12155
11919
11852
11866
11934
12008
12272
12311
12323
12344
12319
12311
12315
12331
12303
12314
12333
12286
12272
12256
12218
12167
12198
12186
12133
12081
12054
12089
12080
12087
12130
12141
12059
12175
12227
12227
12228
12158
12088
12084
12054
12048
12031
12112
12215
12270
12297
12265
12223
12270
12254
12183
12098
12064
12101
12197
12103
12043
12033
11995
11983
12064
12111
12196
12239
12208
12187
12213
12216
12183
12209
12287
12348
12347
12350
12360
12360
12300
12258
12225
12188
12158
12037
11948
11938
11948
12025
12032
12042
12091
12133
12131
12122
12184
12278
12332
12329
12368
12351
12325
12313
12292
12261
12258
12196
12160
12106
11942
11801
11818
11872
11884
11934
12039
12174
12252
12305
12333
12343
12326
12195
12187
12193
12161
12136
12244
12237
12194
12228
12235
12217
12228
12227
12213
12204
12206
12190
12160
12125
12115
12105
12099
12121
12166
12169
12170
12189
12077
12067
12065
12120
12139
12178
12176
12192
12215
12249
12265
12274
12267
12233
12225
12247
12160
12099
12003
11898
11874
11861
11996
12044
12060
12004
11979
11958
11970
12012
12024
12009
12107
12142
12191
12232
12219
12251
12248
12248
12249
12251
12225
12235
12226
12217
12121
12120
12131
12204
12207
12263
12260
12217
12177
12142
12156
12163
12173
12183
12232
12274
12299
12312
12230
12162
12165
12189
12217
12232
12175
12192
12236
12211
12178
12181
12065
12068
12166
12199
12227
12254
12164
12088
12104
12156
12234
12268
12264
12254
12262
12251
12142
12071
12029
11989
11995
12093
12067
11946
11845
11816
11891
12060
12096
12184
12234
12312
12312
12293
12242
12266
12310
12340
12313
12326
12332
12326
12343
12357
12361
12336
12279
12201
12121
12148
12172
12210
12198
12173
12159
12132
12033
12024
12016
12058
12008
11929
11892
11920
12002
12030
12007
11934
11909
11944
12121
12173
12248
12297
12313
12288
12313
12286
12267
12242
12175
12163
12161
12186
12212
12249
12276
12254
12227
12206
12210
12234
12204
12239
12219
12214
12246
12233
12214
12207
12209
12169
12161
12151
12156
12166
12166
12086
12039
12043
12088
12095
12079
12160
12196
12182
12148
12132
12145
12170
12170
12216
12213
12218
12233
12215
12218
12221
12207
12207
12164
12172
12144
12144
12153
12124
12135
12075
12038
12070
12150
12183
12181
12156
12160
12209
12221
12224
12224
12249
12260
12248
12224
12211
12242
12261
12259
12112
12080
12075
12094
12070
11971
11998
11943
11918
11905
11971
12040
12085
12103
12132
12162
12314
12336
12345
12319
12336
12278
12270
12264
12265
12316
12278
12128
12115
12177
12226
12243
12123
12131
12117
12089
12045
12010
11864
11912
11984
12045
12085
12173
12197
12184
12246
12229
12255
12261
12258
12250
12238
12247
12248
12192
12199
12213
12207
12146
12139
12125
12129
12120
12091
12182
12175
12161
12132
12076
12105
12186
12211
12222
12305
12336
12328
12314
12249
12196
12199
12155
12044
11950
11931
11993
11952
11959
11994
12022
12065
12091
12163
12202
12229
12271
12268
12299
12317
12294
12272
12293
12266
12267
12262
12243
12221
12198
12154
12087
11974
11879
11848
11925
11938
12017
12084
12095
12139
12239
12276
12256
12270
12242
12222
12227
12231
12230
12260
12297
12277
12273
12294
12257
12213
12178
12182
12162
12110
12128
12162
12122
12060
12084
12055
12072
12143
12170
12174
12180
12195
12145
12183
12193
12196
12191
12200
12157
12166
12210
12215
12191
12188
12161
12142
12153
12157
12144
12130
12103
12124
12082
12084
12103
12142
12174
12214
12260
12197
12197
12229
12256
12269
12354
12391
12381
12345
12289
12235
12128
12041
11963
11967
12006
12061
11935
11800
11715
11677
11681
11750
11877
11956
12043
12114
12223
12247
12292
12366
12379
12387
12360
12349
12332
12320
12290
12310
12312
12306
12253
12226
12216
12244
12223
12157
12144
12156
12142
12153
12188
12184
12206
12210
12125
12143
12151
12168
12172
12194
12173
12175
12207
12197
12198
12205
12207
12194
12186
12181
12169
12158
12124
12047
12064
12118
12084
12111
12168
12172
12215
12157
12113
12120
12117
12084
12157
12118
12087
12088
12110
12134
12120
12167
12198
12172
12167
12152
12166
12176
12116
12077
12109
12119
12172
12210
12241
12262
12221
12204
12202
12216
12248
12305
12276
12260
12288
12268
12235
12220
12223
12150
12097
12023
11987
12005
11995
11982
11962
12042
12090
12163
12245
12261
12241
12215
12162
12160
12223
12266
12325
12323
12312
12277
12190
12188
12130
12087
12054
11997
11949
12004
12076
12095
12064
11940
11949
12015
12050
12140
12242
12302
12330
12253
12230
12283
12300
12319
12337
12368
12414
12443
12397
12268
12202
12200
12152
12119
12058
12007
11980
11978
11928
12041
12040
12042
11983
11987
12063
12257
12249
12234
12216
12257
12326
12347
12367
12373
12404
12406
12332
12221
12178
12114
12091
12202
12234
12193
12117
12136
12141
12182
12085
11998
11987
11959
11958
11992
11890
11808
11793
11899
11952
12062
12094
12140
12228
12502
12698
12896
13026
13072
13071
13054
13095
13112
13045
12898
12495
12075
11510
11057
10908
10842
10835
10824
10746
10680
10720
10890
11171
11516
11866
12189
12610
12721
12809
12850
12838
12713
12664
12662
12657
12632
12573
12482
12435
12441
12417
12453
12448
12433
12367
12291
12276
12289
12277
12257
12276
12287
12305
12322
12317
12303
12265
12230
12024
12005
12018
12039
12020
11981
11977
11989
12019
12055
12082
12141
12133
12093
12036
12035
12117
12196
12245
12283
12242
12250
12310
12346
12366
12346
12284
12086
12016
11914
11809
11684
11634
11694
11872
11997
12078
12189
12320
12329
12351
12391
12394
12397
12349
12245
12128
12102
12117
12097
12093
12051
12030
12071
12182
12191
12169
12197
12182
12175
12168
12188
12227
12214
12193
12186
12168
12134
12127
12119
12143
12223
12281
12325
12378
12434
12478
12443
12388
12223
12082
12069
12267
12361
12403
12374
12242
11894
11652
11551
11548
11628
11735
11858
11964
12056
12102
12103
12234
12326
12422
12487
12566
12614
12604
12633
12575
12542
12511
12416
12354
12293
12258
12202
12080
11955
11875
11780
11684
11598
11566
11546
11635
11750
11827
12008
12137
12262
12373
12548
12647
12595
12545
12443
12336
12256
12255
12234
12268
12304
12347
12342
12313
12274
12285
12206
11876
11729
11591
11442
11294
11232
11728
12088
12311
12413
12459
12588
12646
12645
12677
12690
12611
12499
12462
12446
12458
12523
12363
12149
11888
11648
11377
11103
10998
11120
11300
11439
11557
11765
11966
12129
12243
12274
12468
12536
12541
12555
12533
12491
12469
12425
12345
12266
12134
12074
12129
12139
12158
12201
12228
12277
12382
12444
12444
12446
12366
12386
12413
12415
12379
12409
12394
12413
12403
12363
12344
12287
12280
12273
12238
12177
12026
11938
11889
11807
11815
11905
11970
12039
12136
12199
12266
12565
12697
12759
12764
12693
12631
12535
12471
12419
12366
12373
12369
12410
12381
12198
11894
11229
10949
10709
10539
10523
10602
10958
11233
11559
11836
12018
12331
12448
12540
12633
12668
12662
12650
12659
12671
12708
12710
12747
12866
12978
13005
12965
12886
12851
12769
12703
12570
12488
12321
12236
12128
11954
11829
11609
11520
11416
11345
11342
11408
11379
11335
11283
11285
11395
11573
11720
11896
12108
12248
12327
12534
12580
12564
12481
12428
12308
12264
12265
12284
12326
12473
12538
12554
12571
12613
12594
12607
12568
12617
12517
12422
12516
12545
12530
12494
12425
12279
12263
12359
12410
12382
12261
12116
11992
11854
11835
11778
11698
11755
11801
11831
11754
11677
11323
11221
11053
10930
10873
11077
11229
11391
11678
12025
12320
12857
12989
13080
13175
13130
13034
12982
12921
12929
12943
12891
12833
12723
12606
12513
12473
12205
12081
11937
11719
11526
11391
11369
11423
11515
11531
11539
11711
11824
11903
11954
11985
12135
12180
12245
12398
12590
12741
12769
12715
12611
12523
12510
12453
12454
12516
12555
12566
12556
12523
12497
12467
12409
12203
11596
11376
11272
11249
11274
11369
11582
11764
11978
12130
12288
12461
12494
12463
12443
12437
12381
12328
12288
12202
12147
11957
11909
11954
12058
12207
12353
12527
12568
12630
12669
12684
12611
12571
12489
12441
12375
12290
11994
11884
11861
11848
11794
11629
11530
11513
11625
11711
11830
12043
12096
12140
12205
12297
12330
12334
12360
12363
12291
11936
11787
11723
11660
11622
11625
11631
11740
11799
11763
11770
12034
12195
12381
12584
12720
12771
12822
12796
12772
12738
12737
12675
12609
12555
12538
12507
12453
12360
12260
12173
12159
12211
12292
12251
12232
12179
12090
11983
12030
12087
12100
12092
12012
11904
11837
11828
11859
11992
12111
12146
12220
12316
12406
12498
12502
12522
12483
12419
12412
12571
12581
12508
12359
12124
11757
11649
11583
11489
11424
11340
11159
11107
11083
11222
11463
11970
12067
12097
12167
12211
12216
12429
12712
12990
13182
13353
13455
13362
13249
13128
12963
12534
12217
11896
11640
11464
11371
11519
11699
11720
11566
11328
11012
10865
10641
10553
10684
11032
11853
12074
12282
12393
12468
12551
12587
12635
12652
12680
12665
12706
12724
12818
12888
12961
13184
13325
13340
13278
13121
12953
12908
12799
12675
12556
12475
12242
12096
11984
11914
11841
11658
11596
11582
11553
11534
11454
11239
11192
11145
11180
11351
11895
12126
12238
12361
12426
12418
12459
12495
12482
12428
12387
12315
12242
12103
12016
11898
11583
11420
11250
11086
11013
10991
11188
11433
11695
11946
12192
12785
12950
13076
13162
13225
13255
13283
13234
13209
13262
13296
13160
13018
12809
12642
12507
12265
12202
12116
11972
11789
11531
10992
10935
11018
11130
11200
11661
11911
12110
12222
12357
12420
12555
12607
12610
12596
12626
12670
12682
12739
12802
12829
12936
12948
12893
12743
12469
12221
11689
11404
11096
10863
10800
11050
11175
11335
11464
11608
11599
11548
11544
11452
11324
11325
11801
12154
12589
12972
13297
13501
13359
13268
13100
12916
12734
12198
11935
11868
11981
12044
11743
11576
11436
11351
11353
11294
11122
11238
11462
11774
12065
12385
12496
12653
12821
12894
13031
12987
12925
12939
12940
12916
12997
12940
12844
12810
12783
12672
12581
12428
12269
12164
11968
11258
11039
10937
10871
10877
11197
11407
11641
11957
12285
12606
13179
13340
13447
13446
13367
13057
12838
12619
12426
12291
12170
12221
12268
12233
11993
11675
11112
10886
10691
10449
10241
10369
10636
10875
11146
11491
11844
12513
12731
12936
13142
13236
13203
13050
12831
12640
12514
12183
12081
12142
12265
12422
12490
12582
12676
12743
12770
12801
12641
12494
12347
12188
12126
12062
11948
11928
11959
12053
12149
12213
12127
12006
11929
11964
11968
11819
11718
11556
11450
11363
11320
11405
11610
11919
12215
12654
12886
13062
13140
13092
12980
12836
12727
12590
12486
12551
12631
12616
12644
12685
12715
12746
12416
12073
11748
11466
11093
10164
9744
9508
9558
9894
10546
11267
11882
12365
12919
13098
13181
13209
13157
12956
12942
12955
12948
12862
12655
11969
11529
11171
11005
11066
11704
11932
12075
12171
12372
12649
13287
13560
13802
13959
14024
13894
13704
13410
13044
12673
12311
11789
11581
11398
11284
11206
11071
11007
10926
10835
10759
10428
10250
10146
10148
10274
10485
10995
11504
12015
12402
12730
12981
13019
13023
13046
13156
13230
13373
13335
13137
12976
12929
13030
13126
13231
13282
13279
13127
12982
12782
12551
12306
12044
11421
11164
10936
10738
10603
10786
11006
11351
11688
11999
12207
12448
12601
12647
12582
12513
12318
12236
12216
12245
12275
12315
12506
12562
12565
12612
12677
12613
12535
12532
12508
12467
12377
12413
12408
12348
12322
12346
12317
12308
12357
12253
11988
11471
11332
11198
11051
11022
11058
11445
11730
11952
12127
12232
12540
12628
12711
12785
12921
13351
13397
13296
13187
13028
12891
12544
12243
11958
11801
11672
11518
11513
11486
11476
11518
11521
11599
11709
11813
11768
11656
11368
11255
11285
11471
11719
11942
12211
12388
12572
12658
12726
12977
12995
12982
13048
12995
12772
12743
12767
12784
12704
12481
11911
11703
11506
11341
11151
10796
10471
10223
10048
9951
10021
10239
10834
11232
11675
12037
12418
12950
13128
13358
13611
13737
13720
13581
13451
13395
13355
13280
13108
13097
13083
12995
12823
12453
12278
12139
11994
11804
11573
11510
11673
11791
11805
11776
11729
11660
11661
11800
11893
12051
12200
12344
12483
12678
12930
13272
13258
13132
13109
13060
12841
12626
12468
12399
12261
12061
11862
11866
11851
11777
11627
11397
11287
11154
10977
10772
10354
10260
10330
10623
11116
11539
12161
12508
12718
12936
13158
13564
13577
13496
13336
13150
12996
12601
12397
12295
12322
12345
12407
12574
12788
13019
13123
13083
12591
12323
12091
11995
12070
12149
12120
12064
11998
11858
11576
11344
11051
10739
10433
10116
9751
9801
9973
10236
10529
10776
11061
11383
11914
12163
12410
12598
12774
13317
13591
13675
13614
13517
13394
13245
13076
12901
12776
12806
12892
12981
13146
13313
13358
13273
13039
12878
12654
12597
12610
12170
11953
11829
11778
11745
11763
11625
11443
11258
11102
10920
10643
10611
10779
11066
11315
11697
11883
12009
12124
12226
12218
12075
11978
12023
12142
12291
12552
12708
12935
13153
13284
13331
13096
12960
12846
12718
12664
12398
12456
12672
12827
12989
12907
12743
12519
12384
12247
12194
12111
12045
12025
12002
11852
11555
11515
11512
11523
11584
11644
11611
11476
11393
11484
11736
12381
12690
12769
12671
12495
12214
12029
11909
11906
11867
11799
11678
11654
11680
11772
11912
12179
12109
12016
12076
12066
11899
11341
11316
11554
11898
12176
12425
12496
12633
12727
12782
12761
12728
12726
12606
12468
12361
12100
11983
11980
12014
11974
11855
11718
11630
11586
11530
11441
11474
11711
12198
12753
13261
13936
14006
14018
13915
13764
13577
13465
13254
13011
12738
12541
12058
11720
11399
11144
10857
10647
10924
11182
11260
11235
11214
11201
11250
11284
11348
11474
11411
11287
11217
11158
11245
11433
11751
11807
11788
11747
11758
11941
11994
12042
12166
12321
12706
12981
13194
13395
13630
13763
13712
13667
13576
13462
13455
13498
13308
13148
13041
13004
12895
12428
12277
12206
12224
12354
12665
12722
12561
12320
12088
11826
11373
11338
11429
11508
11507
11397
11332
11160
10896
10739
10919
11089
11193
11320
11398
11405
11120
10927
10757
10675
10674
10997
11327
11696
12131
12675
13067
13573
13711
13818
13954
14018
13842
13722
13637
13461
13263
13060
12857
12544
12352
12170
12015
11698
11598
11364
11201
11172
11310
11319
11339
11321
11193
11117
11515
11835
12065
12212
12502
13174
13371
13466
13354
13171
13024
12797
12738
12688
12596
12452
12171
11834
11343
10829
10359
9955
10155
10560
11131
11617
12081
12515
12978
13229
13415
13521
13562
13279
12963
12603
12282
12076
11975
11930
11917
11957
11922
11846
11574
11317
11058
10905
10829
11111
11652
12325
13039
13669
14119
14372
14502
14610
14529
14364
13999
13740
13460
13233
12947
12599
12073
11812
11539
11110
10575
9262
8811
8572
8532
8576
8804
9233
9769
10155
10437
10702
11030
11451
12470
12862
13168
13437
13708
14095
14280
14496
14607
14722
14880
15077
14783
14309
13710
13018
11688
11216
10888
10692
10672
10916
11001
11144
11303
11337
11223
10447
10126
9949
9997
10099
10228
10526
11312
11637
11901
12155
12423
12904
13219
13477
13571
13600
13567
13553
13712
13953
13997
13824
13239
13177
13123
12962
12615
12134
11865
11902
11863
11940
12049
12325
12371
12235
11992
11812
11814
11862
11809
11696
11792
12008
12350
12531
12693
12682
12520
12202
12051
11891
11724
11625
11549
11699
11856
11977
11955
11880
11325
10846
10330
9942
9821
10001
10524
11647
12081
12345
12650
12932
13210
13551
13710
13761
13571
13311
12923
12891
12873
12825
12761
12715
12758
12729
12735
12602
12298
11841
11535
11216
11078
11219
12138
12655
13088
13307
13259
13149
12717
12475
12160
11789
11476
11285
11248
11180
10955
10603
10305
10100
10304
10761
11276
11787
12729
13062
13358
13657
13823
13814
13635
13491
13307
13189
13080
12579
12287
12136
11977
11755
11143
10866
10654
10450
10236
10139
11012
11735
12255
12553
12633
12942
13293
13571
13772
13917
14073
13893
13555
13226
12942
12713
12253
11952
11654
11432
11323
11178
11107
11198
11310
11361
11392
11516
11525
11516
11550
11615
11906
12060
12145
12200
12334
12456
12354
12421
12504
12532
12441
12603
12785
12895
12879
12900
13013
13149
13150
13083
12786
12253
11109
10546
10107
9875
10000
10352
11372
11920
12482
12903
13219
13429
13243
13060
12815
12572
12403
12112
11865
11671
11594
11659
11860
12068
12050
12003
11873
11505
11125
11130
11293
11689
12103
12658
12674
12634
12666
12772
12857
12547
12314
12118
11969
11768
11510
11542
11677
11870
12166
12538
13121
13143
12995
12696
12387
12208
12186
12205
12229
12353
12774
12791
12645
12331
11944
11659
11430
11602
11986
12356
12581
12729
12768
12794
12794
12736
12622
12382
12238
12056
11938
11896
11681
11637
11608
11563
11588
11642
11878
12045
12088
12137
12290
12917
13106
13264
13334
13289
13207
13110
12974
12820
12646
12411
11832
11534
11255
10957
10601
9933
9856
10025
10412
10781
11089
11137
11202
11386
11604
11936
12415
12935
13915
14144
14120
13992
13846
13431
13135
12854
12719
12712
12639
12455
12302
12144
11875
11592
11070
10766
10513
10522
10679
11498
11740
11696
11596
11514
11522
11551
11765
11984
12091
12203
12930
13220
13523
13767
13832
13864
13830
13617
13351
13100
12807
12485
12401
12364
12267
12005
11590
10732
10220
9729
9334
9083
9057
9337
9919
10551
11185
12254
12643
12898
13142
13410
13634
14032
14139
14202
14172
14072
13764
13622
13493
13317
13106
12871
12363
12058
11811
11693
11757
11909
11854
11725
11595
11417
11292
11245
11216
11208
11197
11197
11315
11451
11675
11928
12203
12591
12628
12740
12885
13058
13160
13266
13217
13204
13181
13195
13154
13011
12755
12387
11899
11274
10412
10082
9722
9425
9512
9854
10057
10070
10057
10626
11074
11518
12018
12552
13376
13632
13850
13965
13916
13670
13525
13392
13385
13376
13199
12735
12565
12468
12347
12243
12023
12019
12020
11875
11867
12054
12482
12581
12551
12401
12322
12218
12096
11964
11856
11837
11877
11887
11832
11794
11766
11629
11395
11393
11389
11354
11417
11904
12094
12186
12125
11921
11790
12114
12251
12309
12313
12341
12479
12433
12291
12307
12323
12259
12139
12123
12165
12284
12398
12610
12729
12810
12926
12975
13032
13005
12875
12656
12419
12171
11905
11941
11906
11916
11898
12047
11990
11819
11702
11474
11183
10604
10565
10817
11329
11854
12481
12741
12962
13154
13250
13250
13116
12991
12863
12770
12848
12858
12762
12573
12368
12140
11741
11506
11289
11141
11103
11117
11031
10914
10862
10887
10962
11394
11817
12204
12485
12640
12819
13364
13388
13331
13324
13321
13247
13176
13010
12810
12600
11958
11671
11596
11734
11833
11944
12095
12143
12138
12070
11929
11653
11598
11711
11830
12024
12231
12381
12358
12348
12302
12219
12100
12162
12271
12416
12599
12731
13052
13132
13174
13179
13091
12724
12383
11893
11431
11160
10783
10786
10804
10762
10787
10819
11076
11352
11632
11824
11782
11544
11735
12051
12298
12436
12526
12789
12916
13129
13237
13190
13189
13188
13138
13131
13211
13017
12932
12977
13055
12910
12679
12235
12022
11882
11828
11826
11849
11943
12023
11954
11767
11448
10553
10323
10355
10681
11047
11572
11861
12209
12514
12721
12949
12927
12832
12731
12636
12570
12315
12104
12009
12060
12309
12603
12578
12616
12746
12803
12806
12737
12649
12506
12376
12282
12154
12231
12317
12389
12444
12481
12153
11923
11681
11477
11236
10792
10766
10895
11137
11400
11636
11738
11858
11961
12034
12077
12206
12277
12414
12587
12740
12877
12873
12876
12829
12704
12522
12305
12241
12147
12080
12060
12035
12044
12074
12057
12051
11996
11933
11944
12065
12266
12417
12489
12446
12416
12389
12357
12236
12200
12138
12106
12144
12265
12473
12521
12488
12356
12250
12058
12079
12181
12371
12435
12498
12646
12526
12264
11893
11531
11027
10917
11056
11318
11625
12061
12136
12102
12013
11909
11826
11904
11990
12044
12100
12219
12312
12439
12590
12699
12858
12930
12830
12639
12444
12362
12362
12454
12325
12112
11892
11622
11422
11601
11815
11872
11904
11779
11123
10838
10774
10980
11357
12061
12370
12627
12856
13007
13096
13170
13102
13008
12943
12966
13217
13143
12942
12789
12541
11890
11659
11562
11614
11700
11751
11514
11459
11516
11525
11455
11459
11393
11477
11739
12019
12106
11955
11935
12043
12256
12420
12587
12607
12623
12697
12755
12717
12660
12746
12809
12768
12690
12321
12184
12146
12105
12033
11792
11633
11501
11375
11276
11307
11720
12005
12162
12307
12444
12621
12632
12612
12535
12522
12537
12505
12573
12631
12579
12500
12296
12141
12020
11895
11764
11685
11738
11906
12002
12039
12165
12498
12526
12442
12292
12197
12280
12234
12236
12186
12192
12256
12386
12444
12536
12552
12529
12511
12473
12406
12363
12293
12043
11417
11264
11190
11184
11288
11698
11890
12113
12292
12497
12961
12910
12664
12383
12161
11948
11776
11822
11987
12098
12152
11995
11937
11989
12145
12301
12370
12445
12428
12373
12280
12187
12120
12074
12105
12140
12170
12381
12508
12583
12638
12609
12570
12185
11720
11363
11061
10898
11227
11546
11865
12096
12275
12386
12419
12500
12550
12485
12369
12362
12362
12378
12345
12290
12138
12091
12088
12092
12103
12137
12299
12357
12439
12542
12596
12599
12555
12428
12233
12035
11926
11851
11961
12032
12087
12105
12012
11987
12067
12142
12168
12162
12084
11986
11877
11704
11528
11664
11829
11901
12024
12192
12458
12499
12471
12393
12326
12350
12374
12439
12424
12402
12408
12437
12444
12439
12452
12469
12462
12426
12408
12360
12323
12254
12159
12175
12112
12051
11953
11830
11783
11736
11668
11571
11581
11735
11852
11943
12064
12134
12178
12224
12228
12225
12160
12057
11754
11609
11568
11651
11825
12214
12414
12551
12633
12661
12628
12413
12345
12324
12323
12297
12148
12099
12160
12251
12335
12374
12325
12292
12196
12123
12032
12011
11979
11927
11867
11905
11983
12080
12168
12198
12290
12342
12323
12290
12284
12254
12238
12334
12309
12296
12296
12312
12345
12358
12349
12339
12356
12263
12116
12129
12161
12156
12138
11894
11880
11927
11927
11922
11973
11968
12028
12118
12187
12226
12201
12196
12207
12242
12258
12225
12002
11998
11999
12047
12171
12315
12317
12326
12325
12317
12172
12082
11998
11901
11859
11972
12313
12381
12371
12257
12102
11944
11931
11879
11847
11917
12065
12295
12431
12478
12411
12383
12318
12177
12039
11981
11971
11972
11876
11853
11908
11991
12059
12209
12260
12290
12312
12284
12163
12208
12269
12302
12342
12317
12297
12338
12327
12298
12255
12175
12142
12174
12263
12298
12226
12170
12201
12304
12326
12300
12339
12283
12150
11996
11901
11875
12014
12149
12212
12279
12290
12098
12026
11971
11952
11961
12095
12161
12199
12245
12284
12258
12157
12048
12085
12156
12171
12213
12261
12324
12411
12410
12250
12210
12143
12086
12104
12147
12105
12004
11973
12009
12055
12186
12204
12168
12163
12181
12198
12263
12199
12153
12037
11855
11731
11897
12017
12082
12127
12081
12170
12234
12276
12334
12375
12405
12367
12349
12336
12291
12302
12306
12316
12296
12321
12352
12370
12219
12092
12045
12065
12086
12174
12257
12261
12256
12118
12032
12004
11952
11949
11942
11974
12013
12078
12143
12128
12047
12078
12097
12090
12092
12084
12072
12149
12195
12238
12331
12350
12388
12387
12400
12381
12414
12378
12349
12348
12288
12169
11997
11895
11824
11827
11809
11721
11759
11818
11899
12022
12161
12395
12397
12362
12349
12362
12329
12259
12203
12165
12159
12173
12097
12061
12044
12050
12109
12296
12308
12317
12323
12349
12246
12215
12151
12138
12071
12042
12106
12160
12186
12107
12081
12066
12103
12189
12246
12209
12242
12290
12245
12212
12263
12280
12278
12286
12281
12259
12187
12195
12064
12068
12125
12127
12048
11954
11916
11850
11754
11761
12000
12155
12232
12273
12251
12285
12371
12366
12368
12371
12342
12297
12266
12143
12029
12025
12102
12294
12330
12345
12355
12385
12438
12436
12413
12366
12306
12308
12141
12004
11868
11755
11681
11672
11733
11803
11877
11949
12206
12369
12442
12473
12499
12507
12439
12328
12237
12156
12036
11960
11880
11799
11795
11864
11904
11876
11798
11873
12061
12227
12224
12216
12227
12258
12347
12461
12445
12466
12444
12404
12398
12336
12296
12266
12288
12380
12452
12394
12308
12189
12012
11864
11867
11877
11918
12014
12062
12009
12025
12021
12008
12013
12135
12154
12224
12244
12252
12311
12327
12310
12280
12266
12242
12190
12215
12243
12253
12250
12165
12139
12128
12137
12155
12200
12208
12185
12181
12152
12111
12162
12149
12135
12159
12158
12209
12270
12260
12201
12199
12175
12117
12113
12132
12123
12161
12158
12061
12038
12101
12158
12185
12206
12267
12279
12147
12021
11995
12032
12005
12001
11978
11996
12222
12279
12290
12296
12357
12443
12465
12482
12502
12409
12259
11777
11666
11627
11766
11953
12159
12183
12171
12082
11985
11913
12012
12154
12307
12443
12550
12659
12653
12628
12594
12532
12377
12230
12080
11917
11750
11527
11207
11263
11427
11579
11712
12057
12223
12360
12451
12442
12410
12368
12350
12320
12352
12341
12358
12415
12454
12462
12453
12429
12373
12321
12293
12298
12304
12164
12131
12072
12007
12015
12179
12159
12157
12195
12205
12208
12051
11947
11891
11959
12043
12127
12129
12139
12127
12109
12127
12158
12194
12240
12248
12217
12116
12071
12103
12169
12224
12232
12233
12265
12307
12248
12114
12017
12085
12063
12018
12053
12113
12181
12228
12267
12268
12264
12268
12249
12210
12207
12237
12269
12197
12135
12101
12041
11946
11991
12051
12141
12229
12277
12341
12369
12375
12354
12437
12387
12308
12224
12189
12123
12014
11913
11858
11768
11799
11867
12025
11972
11903
11921
11968
12096
12270
12363
12417
12420
12387
12232
12173
12143
12198
12248
12215
12124
12075
12041
12096
12100
12095
12057
11978
11967
12025
12119
12172
12133
12204
12292
12316
12135
12113
12116
12165
12191
12186
12197
12228
12244
12273
12341
12334
12308
12300
12293
12285
12315
12302
12271
12198
12160
12139
12130
12080
12052
12039
12008
12015
12043
12070
12058
12095
12098
12147
12174
12177
12153
12144
12172
12235
12286
12347
12324
12234
12184
12112
12098
12103
12128
12129
12107
12025
12061
12092
12120
12177
12266
12319
12355
12342
12270
12176
12097
12027
11990
12077
12143
12182
12181
12103
11949
11953
11985
12056
12097
12178
12203
12209
12146
12117
12150
12184
12186
12244
12281
12274
12266
12247
12222
12245
12277
12277
12303
12302
12285
12278
12257
12232
12247
12224
12218
12213
12336
12344
12307
12207
12061
11962
11830
11746
11728
11824
11957
12054
12034
12011
12055
12092
12133
12171
12178
12250
12280
12290
12269
12281
12293
12306
12307
12328
12373
12371
12335
12227
12191
12120
12158
12201
12214
12213
12294
12227
12075
11931
11811
11733
11896
12053
12153
12194
12184
12211
12254
12311
12321
12332
12292
12228
12187
12152
12109
12124
12253
12250
12242
12244
12093
11883
11865
11906
11994
12093
12191
12255
12294
12294
12293
12299
12293
12261
12264
12266
12231
12210
12188
12200
12215
12198
12117
12148
12154
12196
12201
12226
12242
12208
12179
12120
12082
12085
12087
12106
12127
12120
12104
12097
12106
12133
12193
12248
12313
12315
12281
12228
12153
12056
11945
11958
11996
12045
12183
12255
12273
12248
12197
12194
12208
12234
12207
12220
12219
12205
12211
12187
12161
12203
12229
12192
11894
11776
11774
11835
11930
12003
12093
12112
12136
12155
12224
12290
12272
12248
12232
12210
12284
12271
12263
12292
12282
12292
12288
12230
12217
12229
12229
12151
12153
12173
12180
12175
12124
12152
12185
12178
12153
12163
12192
12191
12187
12142
12068
12085
12119
12137
12164
12201
12160
12183
12185
12174
12165
12218
12188
12152
12162
12153
12119
11978
11987
12027
12058
12022
12046
12163
12195
12235
12213
12189
12207
12220
12215
12249
12257
12260
12262
12224
12221
12199
12173
12109
12099
12114
12159
12155
12074
12013
12003
12071
12114
12130
12217
12230
12268
12240
12219
12209
12218
12202
12196
12207
12213
12227
12213
12172
12145
12149
12181
12164
12151
12173
12191
12176
12068
12067
12098
12112
12154
12191
12217
12228
12211
12170
12210
12220
12204
12165
12159
12129
12196
12212
12227
12200
12184
12158
12162
12149
12113
12102
12094
12059
12060
12100
12145
12182
12211
12259
12273
12272
12267
12280
12286
12285
12264
12253
12254
12193
12215
12208
12168
12095
12005
11963
11936
11952
11961
11940
11830
11787
11845
11924
11985
12169
12235
12290
12337
12350
12315
12293
12303
12293
12276
12313
12289
12278
12311
12305
12230
12177
12145
12148
12154
12184
12216
12226
12182
12184
12205
12198
12276
12295
12295
12283
12280
12282
12086
12003
11930
11878
11877
11943
11938
11938
12012
12052
12108
12163
12183
12215
12220
12225
12284
12267
12206
12209
12214
12200
12250
12289
12317
12330
12278
12117
12078
12061
12078
12079
12210
12221
12243
12262
12290
12286
12287
12219
12187
12133
12131
12174
12158
12053
11995
11969
11952
12021
12111
12151
12148
12150
11960
11933
12019
12111
12178
12329
12361
12429
12427
12453
12461
12425
12416
12400
12322
12258
12110
12073
11997
11889
11794
11703
11711
11758
11879
11993
12114
12154
12178
12251
12265
12213
12180
12280
12414
12517
12574
12568
12610
12570
12488
12372
12264
12093
11919
11663
11405
11434
11762
11761
11693
11655
11642
11728
12022
12155
12317
12416
12411
12317
12214
12124
12121
12230
12272
12369
12434
12439
12435
12419
12406
12407
12390
12283
12211
12188
12096
12090
12187
12275
12318
12202
12070
12128
12224
12209
12080
12097
12134
12117
12062
12054
11973
11992
12084
12122
12135
12163
12209
12236
12247
12152
12162
12191
12228
12253
12305
12390
12466
12378
12285
12234
12213
12325
12481
12504
12420
12249
12116
11904
11964
12135
12265
12314
12192
12078
11904
11724
11481
11328
11478
11651
11740
11789
11847
12095
12244
12426
12632
12800
12775
12691
12589
12458
12465
12471
12325
12158
11981
11743
11545
11324
11303
11363
11453
11496
11513
11889
12043
12138
12234
12348
12519
12577
12571
12563
12586
12627
12534
12527
