index,t_s,q15,norm
0,0.000000,0,0.000000
1,0.000125,0,0.000000
2,0.000250,0,0.000000
3,0.000375,0,0.000000
4,0.000500,0,0.000000
5,0.000625,0,0.000000
6,0.000750,0,0.000000
7,0.000875,0,0.000000
8,0.001000,0,0.000000
9,0.001125,0,0.000000
10,0.001250,0,0.000000
11,0.001375,0,0.000000
12,0.001500,0,0.000000
13,0.001625,0,0.000000
14,0.001750,0,0.000000
15,0.001875,0,0.000000
16,0.002000,0,0.000000
17,0.002125,0,0.000000
18,0.002250,0,0.000000
19,0.002375,0,0.000000
20,0.002500,0,0.000000
21,0.002625,0,0.000000
22,0.002750,0,0.000000
23,0.002875,0,0.000000
24,0.003000,0,0.000000
25,0.003125,0,0.000000
26,0.003250,0,0.000000
27,0.003375,0,0.000000
28,0.003500,0,0.000000
29,0.003625,0,0.000000
30,0.003750,0,0.000000
31,0.003875,0,0.000000
32,0.004000,0,0.000000
33,0.004125,0,0.000000
34,0.004250,0,0.000000
35,0.004375,0,0.000000
36,0.004500,0,0.000000
37,0.004625,0,0.000000
38,0.004750,0,0.000000
39,0.004875,0,0.000000
40,0.005000,0,0.000000
41,0.005125,0,0.000000
42,0.005250,0,0.000000
43,0.005375,0,0.000000
44,0.005500,0,0.000000
45,0.005625,0,0.000000
46,0.005750,0,0.000000
47,0.005875,0,0.000000
48,0.006000,0,0.000000
49,0.006125,0,0.000000
50,0.006250,0,0.000000
51,0.006375,0,0.000000
52,0.006500,0,0.000000
53,0.006625,0,0.000000
54,0.006750,0,0.000000
55,0.006875,0,0.000000
56,0.007000,0,0.000000
57,0.007125,0,0.000000
58,0.007250,0,0.000000
59,0.007375,0,0.000000
60,0.007500,0,0.000000
61,0.007625,0,0.000000
62,0.007750,0,0.000000
63,0.007875,0,0.000000
64,0.008000,0,0.000000
65,0.008125,0,0.000000
66,0.008250,0,0.000000
67,0.008375,0,0.000000
68,0.008500,0,0.000000
69,0.008625,0,0.000000
70,0.008750,0,0.000000
71,0.008875,0,0.000000
72,0.009000,0,0.000000
73,0.009125,0,0.000000
74,0.009250,0,0.000000
75,0.009375,0,0.000000
76,0.009500,0,0.000000
77,0.009625,0,0.000000
78,0.009750,0,0.000000
79,0.009875,0,0.000000
80,0.010000,0,0.000000
81,0.010125,0,0.000000
82,0.010250,0,0.000000
83,0.010375,0,0.000000
84,0.010500,0,0.000000
85,0.010625,0,0.000000
86,0.010750,0,0.000000
87,0.010875,0,0.000000
88,0.011000,0,0.000000
89,0.011125,0,0.000000
90,0.011250,0,0.000000
91,0.011375,0,0.000000
92,0.011500,0,0.000000
93,0.011625,0,0.000000
94,0.011750,0,0.000000
95,0.011875,0,0.000000
96,0.012000,0,0.000000
97,0.012125,0,0.000000
98,0.012250,0,0.000000
99,0.012375,0,0.000000
100,0.012500,0,0.000000
101,0.012625,0,0.000000
102,0.012750,0,0.000000
103,0.012875,0,0.000000
104,0.013000,0,0.000000
105,0.013125,0,0.000000
106,0.013250,0,0.000000
107,0.013375,0,0.000000
108,0.013500,0,0.000000
109,0.013625,0,0.000000
110,0.013750,0,0.000000
111,0.013875,0,0.000000
112,0.014000,0,0.000000
113,0.014125,0,0.000000
114,0.014250,0,0.000000
115,0.014375,0,0.000000
116,0.014500,0,0.000000
117,0.014625,0,0.000000
118,0.014750,0,0.000000
119,0.014875,0,0.000000
120,0.015000,0,0.000000
121,0.015125,0,0.000000
122,0.015250,0,0.000000
123,0.015375,0,0.000000
124,0.015500,0,0.000000
125,0.015625,0,0.000000
126,0.015750,0,0.000000
127,0.015875,0,0.000000
128,0.016000,0,0.000000
129,0.016125,0,0.000000
130,0.016250,0,0.000000
131,0.016375,0,0.000000
132,0.016500,0,0.000000
133,0.016625,0,0.000000
134,0.016750,0,0.000000
135,0.016875,0,0.000000
136,0.017000,0,0.000000
137,0.017125,0,0.000000
138,0.017250,0,0.000000
139,0.017375,0,0.000000
140,0.017500,0,0.000000
141,0.017625,0,0.000000
142,0.017750,0,0.000000
143,0.017875,0,0.000000
144,0.018000,0,0.000000
145,0.018125,0,0.000000
146,0.018250,0,0.000000
147,0.018375,0,0.000000
148,0.018500,0,0.000000
149,0.018625,0,0.000000
150,0.018750,0,0.000000
151,0.018875,0,0.000000
152,0.019000,0,0.000000
153,0.019125,0,0.000000
154,0.019250,0,0.000000
155,0.019375,0,0.000000
156,0.019500,0,0.000000
157,0.019625,0,0.000000
158,0.019750,0,0.000000
159,0.019875,0,0.000000
160,0.020000,0,0.000000
161,0.020125,0,0.000000
162,0.020250,0,0.000000
163,0.020375,0,0.000000
164,0.020500,0,0.000000
165,0.020625,0,0.000000
166,0.020750,0,0.000000
167,0.020875,0,0.000000
168,0.021000,0,0.000000
169,0.021125,0,0.000000
170,0.021250,0,0.000000
171,0.021375,0,0.000000
172,0.021500,0,0.000000
173,0.021625,0,0.000000
174,0.021750,0,0.000000
175,0.021875,0,0.000000
176,0.022000,0,0.000000
177,0.022125,0,0.000000
178,0.022250,0,0.000000
179,0.022375,0,0.000000
180,0.022500,0,0.000000
181,0.022625,0,0.000000
182,0.022750,0,0.000000
183,0.022875,0,0.000000
184,0.023000,0,0.000000
185,0.023125,0,0.000000
186,0.023250,0,0.000000
187,0.023375,0,0.000000
188,0.023500,0,0.000000
189,0.023625,0,0.000000
190,0.023750,0,0.000000
191,0.023875,0,0.000000
192,0.024000,0,0.000000
193,0.024125,0,0.000000
194,0.024250,0,0.000000
195,0.024375,0,0.000000
196,0.024500,0,0.000000
197,0.024625,0,0.000000
198,0.024750,0,0.000000
199,0.024875,0,0.000000
200,0.025000,0,0.000000
201,0.025125,0,0.000000
202,0.025250,0,0.000000
203,0.025375,0,0.000000
204,0.025500,0,0.000000
205,0.025625,0,0.000000
206,0.025750,0,0.000000
207,0.025875,0,0.000000
208,0.026000,0,0.000000
209,0.026125,0,0.000000
210,0.026250,0,0.000000
211,0.026375,0,0.000000
212,0.026500,0,0.000000
213,0.026625,0,0.000000
214,0.026750,0,0.000000
215,0.026875,0,0.000000
216,0.027000,0,0.000000
217,0.027125,0,0.000000
218,0.027250,0,0.000000
219,0.027375,0,0.000000
220,0.027500,0,0.000000
221,0.027625,0,0.000000
222,0.027750,0,0.000000
223,0.027875,0,0.000000
224,0.028000,0,0.000000
225,0.028125,0,0.000000
226,0.028250,0,0.000000
227,0.028375,0,0.000000
228,0.028500,0,0.000000
229,0.028625,0,0.000000
230,0.028750,0,0.000000
231,0.028875,0,0.000000
232,0.029000,0,0.000000
233,0.029125,0,0.000000
234,0.029250,0,0.000000
235,0.029375,0,0.000000
236,0.029500,0,0.000000
237,0.029625,0,0.000000
238,0.029750,0,0.000000
239,0.029875,0,0.000000
240,0.030000,0,0.000000
241,0.030125,0,0.000000
242,0.030250,0,0.000000
243,0.030375,0,0.000000
244,0.030500,0,0.000000
245,0.030625,0,0.000000
246,0.030750,0,0.000000
247,0.030875,0,0.000000
248,0.031000,0,0.000000
249,0.031125,0,0.000000
250,0.031250,0,0.000000
251,0.031375,0,0.000000
252,0.031500,0,0.000000
253,0.031625,0,0.000000
254,0.031750,0,0.000000
255,0.031875,0,0.000000
256,0.032000,0,0.000000
257,0.032125,0,0.000000
258,0.032250,0,0.000000
259,0.032375,0,0.000000
260,0.032500,0,0.000000
261,0.032625,0,0.000000
262,0.032750,0,0.000000
263,0.032875,0,0.000000
264,0.033000,0,0.000000
265,0.033125,0,0.000000
266,0.033250,0,0.000000
267,0.033375,0,0.000000
268,0.033500,0,0.000000
269,0.033625,0,0.000000
270,0.033750,0,0.000000
271,0.033875,0,0.000000
272,0.034000,0,0.000000
273,0.034125,0,0.000000
274,0.034250,0,0.000000
275,0.034375,0,0.000000
276,0.034500,0,0.000000
277,0.034625,0,0.000000
278,0.034750,0,0.000000
279,0.034875,0,0.000000
280,0.035000,0,0.000000
281,0.035125,0,0.000000
282,0.035250,0,0.000000
283,0.035375,0,0.000000
284,0.035500,0,0.000000
285,0.035625,0,0.000000
286,0.035750,0,0.000000
287,0.035875,0,0.000000
288,0.036000,0,0.000000
289,0.036125,0,0.000000
290,0.036250,0,0.000000
291,0.036375,0,0.000000
292,0.036500,0,0.000000
293,0.036625,0,0.000000
294,0.036750,0,0.000000
295,0.036875,0,0.000000
296,0.037000,0,0.000000
297,0.037125,0,0.000000
298,0.037250,0,0.000000
299,0.037375,0,0.000000
300,0.037500,0,0.000000
301,0.037625,0,0.000000
302,0.037750,0,0.000000
303,0.037875,0,0.000000
304,0.038000,0,0.000000
305,0.038125,0,0.000000
306,0.038250,0,0.000000
307,0.038375,0,0.000000
308,0.038500,0,0.000000
309,0.038625,0,0.000000
310,0.038750,0,0.000000
311,0.038875,0,0.000000
312,0.039000,0,0.000000
313,0.039125,0,0.000000
314,0.039250,0,0.000000
315,0.039375,0,0.000000
316,0.039500,0,0.000000
317,0.039625,0,0.000000
318,0.039750,0,0.000000
319,0.039875,0,0.000000
320,0.040000,0,0.000000
321,0.040125,0,0.000000
322,0.040250,0,0.000000
323,0.040375,0,0.000000
324,0.040500,0,0.000000
325,0.040625,0,0.000000
326,0.040750,0,0.000000
327,0.040875,0,0.000000
328,0.041000,0,0.000000
329,0.041125,0,0.000000
330,0.041250,0,0.000000
331,0.041375,0,0.000000
332,0.041500,0,0.000000
333,0.041625,0,0.000000
334,0.041750,0,0.000000
335,0.041875,0,0.000000
336,0.042000,0,0.000000
337,0.042125,0,0.000000
338,0.042250,0,0.000000
339,0.042375,0,0.000000
340,0.042500,0,0.000000
341,0.042625,0,0.000000
342,0.042750,0,0.000000
343,0.042875,0,0.000000
344,0.043000,0,0.000000
345,0.043125,0,0.000000
346,0.043250,0,0.000000
347,0.043375,0,0.000000
348,0.043500,0,0.000000
349,0.043625,0,0.000000
350,0.043750,0,0.000000
351,0.043875,0,0.000000
352,0.044000,0,0.000000
353,0.044125,0,0.000000
354,0.044250,0,0.000000
355,0.044375,0,0.000000
356,0.044500,0,0.000000
357,0.044625,0,0.000000
358,0.044750,0,0.000000
359,0.044875,0,0.000000
360,0.045000,0,0.000000
361,0.045125,0,0.000000
362,0.045250,0,0.000000
363,0.045375,0,0.000000
364,0.045500,0,0.000000
365,0.045625,0,0.000000
366,0.045750,0,0.000000
367,0.045875,0,0.000000
368,0.046000,0,0.000000
369,0.046125,0,0.000000
370,0.046250,0,0.000000
371,0.046375,0,0.000000
372,0.046500,0,0.000000
373,0.046625,0,0.000000
374,0.046750,0,0.000000
375,0.046875,0,0.000000
376,0.047000,0,0.000000
377,0.047125,0,0.000000
378,0.047250,0,0.000000
379,0.047375,0,0.000000
380,0.047500,0,0.000000
381,0.047625,0,0.000000
382,0.047750,0,0.000000
383,0.047875,0,0.000000
384,0.048000,0,0.000000
385,0.048125,0,0.000000
386,0.048250,0,0.000000
387,0.048375,0,0.000000
388,0.048500,0,0.000000
389,0.048625,0,0.000000
390,0.048750,0,0.000000
391,0.048875,0,0.000000
392,0.049000,0,0.000000
393,0.049125,0,0.000000
394,0.049250,0,0.000000
395,0.049375,0,0.000000
396,0.049500,0,0.000000
397,0.049625,0,0.000000
398,0.049750,0,0.000000
399,0.049875,0,0.000000
400,0.050000,0,0.000000
401,0.050125,0,0.000000
402,0.050250,0,0.000000
403,0.050375,0,0.000000
404,0.050500,0,0.000000
405,0.050625,0,0.000000
406,0.050750,0,0.000000
407,0.050875,0,0.000000
408,0.051000,0,0.000000
409,0.051125,0,0.000000
410,0.051250,0,0.000000
411,0.051375,0,0.000000
412,0.051500,0,0.000000
413,0.051625,0,0.000000
414,0.051750,0,0.000000
415,0.051875,0,0.000000
416,0.052000,0,0.000000
417,0.052125,0,0.000000
418,0.052250,0,0.000000
419,0.052375,0,0.000000
420,0.052500,0,0.000000
421,0.052625,0,0.000000
422,0.052750,0,0.000000
423,0.052875,0,0.000000
424,0.053000,0,0.000000
425,0.053125,0,0.000000
426,0.053250,0,0.000000
427,0.053375,0,0.000000
428,0.053500,0,0.000000
429,0.053625,0,0.000000
430,0.053750,0,0.000000
431,0.053875,0,0.000000
432,0.054000,0,0.000000
433,0.054125,0,0.000000
434,0.054250,0,0.000000
435,0.054375,0,0.000000
436,0.054500,0,0.000000
437,0.054625,0,0.000000
438,0.054750,0,0.000000
439,0.054875,0,0.000000
440,0.055000,0,0.000000
441,0.055125,0,0.000000
442,0.055250,0,0.000000
443,0.055375,0,0.000000
444,0.055500,0,0.000000
445,0.055625,0,0.000000
446,0.055750,0,0.000000
447,0.055875,0,0.000000
448,0.056000,0,0.000000
449,0.056125,0,0.000000
450,0.056250,0,0.000000
451,0.056375,0,0.000000
452,0.056500,0,0.000000
453,0.056625,0,0.000000
454,0.056750,0,0.000000
455,0.056875,0,0.000000
456,0.057000,0,0.000000
457,0.057125,0,0.000000
458,0.057250,0,0.000000
459,0.057375,0,0.000000
460,0.057500,0,0.000000
461,0.057625,0,0.000000
462,0.057750,0,0.000000
463,0.057875,0,0.000000
464,0.058000,0,0.000000
465,0.058125,0,0.000000
466,0.058250,0,0.000000
467,0.058375,0,0.000000
468,0.058500,0,0.000000
469,0.058625,0,0.000000
470,0.058750,0,0.000000
471,0.058875,0,0.000000
472,0.059000,0,0.000000
473,0.059125,0,0.000000
474,0.059250,0,0.000000
475,0.059375,0,0.000000
476,0.059500,0,0.000000
477,0.059625,0,0.000000
478,0.059750,0,0.000000
479,0.059875,0,0.000000
480,0.060000,0,0.000000
481,0.060125,0,0.000000
482,0.060250,0,0.000000
483,0.060375,0,0.000000
484,0.060500,0,0.000000
485,0.060625,0,0.000000
486,0.060750,0,0.000000
487,0.060875,0,0.000000
488,0.061000,0,0.000000
489,0.061125,0,0.000000
490,0.061250,0,0.000000
491,0.061375,0,0.000000
492,0.061500,0,0.000000
493,0.061625,0,0.000000
494,0.061750,0,0.000000
495,0.061875,0,0.000000
496,0.062000,0,0.000000
497,0.062125,0,0.000000
498,0.062250,0,0.000000
499,0.062375,0,0.000000
500,0.062500,0,0.000000
501,0.062625,0,0.000000
502,0.062750,0,0.000000
503,0.062875,0,0.000000
504,0.063000,0,0.000000
505,0.063125,0,0.000000
506,0.063250,0,0.000000
507,0.063375,0,0.000000
508,0.063500,0,0.000000
509,0.063625,0,0.000000
510,0.063750,0,0.000000
511,0.063875,0,0.000000
512,0.064000,0,0.000000
513,0.064125,0,0.000000
514,0.064250,0,0.000000
515,0.064375,0,0.000000
516,0.064500,0,0.000000
517,0.064625,0,0.000000
518,0.064750,0,0.000000
519,0.064875,0,0.000000
520,0.065000,0,0.000000
521,0.065125,0,0.000000
522,0.065250,0,0.000000
523,0.065375,0,0.000000
524,0.065500,0,0.000000
525,0.065625,0,0.000000
526,0.065750,0,0.000000
527,0.065875,0,0.000000
528,0.066000,0,0.000000
529,0.066125,0,0.000000
530,0.066250,0,0.000000
531,0.066375,0,0.000000
532,0.066500,0,0.000000
533,0.066625,0,0.000000
534,0.066750,0,0.000000
535,0.066875,0,0.000000
536,0.067000,0,0.000000
537,0.067125,0,0.000000
538,0.067250,0,0.000000
539,0.067375,0,0.000000
540,0.067500,0,0.000000
541,0.067625,0,0.000000
542,0.067750,0,0.000000
543,0.067875,0,0.000000
544,0.068000,0,0.000000
545,0.068125,0,0.000000
546,0.068250,0,0.000000
547,0.068375,0,0.000000
548,0.068500,0,0.000000
549,0.068625,0,0.000000
550,0.068750,0,0.000000
551,0.068875,0,0.000000
552,0.069000,0,0.000000
553,0.069125,0,0.000000
554,0.069250,0,0.000000
555,0.069375,0,0.000000
556,0.069500,0,0.000000
557,0.069625,0,0.000000
558,0.069750,0,0.000000
559,0.069875,0,0.000000
560,0.070000,0,0.000000
561,0.070125,0,0.000000
562,0.070250,0,0.000000
563,0.070375,0,0.000000
564,0.070500,0,0.000000
565,0.070625,0,0.000000
566,0.070750,0,0.000000
567,0.070875,0,0.000000
568,0.071000,0,0.000000
569,0.071125,0,0.000000
570,0.071250,0,0.000000
571,0.071375,0,0.000000
572,0.071500,0,0.000000
573,0.071625,0,0.000000
574,0.071750,0,0.000000
575,0.071875,0,0.000000
576,0.072000,0,0.000000
577,0.072125,0,0.000000
578,0.072250,0,0.000000
579,0.072375,0,0.000000
580,0.072500,0,0.000000
581,0.072625,0,0.000000
582,0.072750,0,0.000000
583,0.072875,0,0.000000
584,0.073000,0,0.000000
585,0.073125,0,0.000000
586,0.073250,0,0.000000
587,0.073375,0,0.000000
588,0.073500,0,0.000000
589,0.073625,0,0.000000
590,0.073750,0,0.000000
591,0.073875,0,0.000000
592,0.074000,0,0.000000
593,0.074125,0,0.000000
594,0.074250,0,0.000000
595,0.074375,0,0.000000
596,0.074500,0,0.000000
597,0.074625,0,0.000000
598,0.074750,0,0.000000
599,0.074875,0,0.000000
600,0.075000,0,0.000000
601,0.075125,0,0.000000
602,0.075250,0,0.000000
603,0.075375,0,0.000000
604,0.075500,0,0.000000
605,0.075625,0,0.000000
606,0.075750,0,0.000000
607,0.075875,0,0.000000
608,0.076000,0,0.000000
609,0.076125,0,0.000000
610,0.076250,0,0.000000
611,0.076375,0,0.000000
612,0.076500,0,0.000000
613,0.076625,0,0.000000
614,0.076750,0,0.000000
615,0.076875,0,0.000000
616,0.077000,0,0.000000
617,0.077125,0,0.000000
618,0.077250,0,0.000000
619,0.077375,0,0.000000
620,0.077500,0,0.000000
621,0.077625,0,0.000000
622,0.077750,0,0.000000
623,0.077875,0,0.000000
624,0.078000,0,0.000000
625,0.078125,0,0.000000
626,0.078250,0,0.000000
627,0.078375,0,0.000000
628,0.078500,0,0.000000
629,0.078625,0,0.000000
630,0.078750,0,0.000000
631,0.078875,0,0.000000
632,0.079000,0,0.000000
633,0.079125,0,0.000000
634,0.079250,0,0.000000
635,0.079375,0,0.000000
636,0.079500,0,0.000000
637,0.079625,0,0.000000
638,0.079750,0,0.000000
639,0.079875,0,0.000000
640,0.080000,0,0.000000
641,0.080125,0,0.000000
642,0.080250,0,0.000000
643,0.080375,0,0.000000
644,0.080500,0,0.000000
645,0.080625,0,0.000000
646,0.080750,0,0.000000
647,0.080875,0,0.000000
648,0.081000,0,0.000000
649,0.081125,0,0.000000
650,0.081250,0,0.000000
651,0.081375,0,0.000000
652,0.081500,0,0.000000
653,0.081625,0,0.000000
654,0.081750,0,0.000000
655,0.081875,0,0.000000
656,0.082000,0,0.000000
657,0.082125,0,0.000000
658,0.082250,0,0.000000
659,0.082375,0,0.000000
660,0.082500,0,0.000000
661,0.082625,0,0.000000
662,0.082750,0,0.000000
663,0.082875,0,0.000000
664,0.083000,0,0.000000
665,0.083125,0,0.000000
666,0.083250,0,0.000000
667,0.083375,0,0.000000
668,0.083500,0,0.000000
669,0.083625,0,0.000000
670,0.083750,0,0.000000
671,0.083875,0,0.000000
672,0.084000,0,0.000000
673,0.084125,0,0.000000
674,0.084250,0,0.000000
675,0.084375,0,0.000000
676,0.084500,0,0.000000
677,0.084625,0,0.000000
678,0.084750,0,0.000000
679,0.084875,0,0.000000
680,0.085000,0,0.000000
681,0.085125,0,0.000000
682,0.085250,0,0.000000
683,0.085375,0,0.000000
684,0.085500,0,0.000000
685,0.085625,0,0.000000
686,0.085750,0,0.000000
687,0.085875,0,0.000000
688,0.086000,0,0.000000
689,0.086125,0,0.000000
690,0.086250,0,0.000000
691,0.086375,0,0.000000
692,0.086500,0,0.000000
693,0.086625,0,0.000000
694,0.086750,0,0.000000
695,0.086875,0,0.000000
696,0.087000,0,0.000000
697,0.087125,0,0.000000
698,0.087250,0,0.000000
699,0.087375,0,0.000000
700,0.087500,0,0.000000
701,0.087625,0,0.000000
702,0.087750,0,0.000000
703,0.087875,0,0.000000
704,0.088000,0,0.000000
705,0.088125,0,0.000000
706,0.088250,0,0.000000
707,0.088375,0,0.000000
708,0.088500,0,0.000000
709,0.088625,0,0.000000
710,0.088750,0,0.000000
711,0.088875,0,0.000000
712,0.089000,0,0.000000
713,0.089125,0,0.000000
714,0.089250,0,0.000000
715,0.089375,0,0.000000
716,0.089500,0,0.000000
717,0.089625,0,0.000000
718,0.089750,0,0.000000
719,0.089875,0,0.000000
720,0.090000,0,0.000000
721,0.090125,0,0.000000
722,0.090250,0,0.000000
723,0.090375,0,0.000000
724,0.090500,0,0.000000
725,0.090625,0,0.000000
726,0.090750,0,0.000000
727,0.090875,0,0.000000
728,0.091000,0,0.000000
729,0.091125,0,0.000000
730,0.091250,0,0.000000
731,0.091375,0,0.000000
732,0.091500,0,0.000000
733,0.091625,0,0.000000
734,0.091750,0,0.000000
735,0.091875,0,0.000000
736,0.092000,0,0.000000
737,0.092125,0,0.000000
738,0.092250,0,0.000000
739,0.092375,0,0.000000
740,0.092500,0,0.000000
741,0.092625,0,0.000000
742,0.092750,0,0.000000
743,0.092875,0,0.000000
744,0.093000,0,0.000000
745,0.093125,0,0.000000
746,0.093250,0,0.000000
747,0.093375,0,0.000000
748,0.093500,0,0.000000
749,0.093625,0,0.000000
750,0.093750,0,0.000000
751,0.093875,0,0.000000
752,0.094000,0,0.000000
753,0.094125,0,0.000000
754,0.094250,0,0.000000
755,0.094375,0,0.000000
756,0.094500,0,0.000000
757,0.094625,0,0.000000
758,0.094750,0,0.000000
759,0.094875,0,0.000000
760,0.095000,0,0.000000
761,0.095125,0,0.000000
762,0.095250,0,0.000000
763,0.095375,0,0.000000
764,0.095500,0,0.000000
765,0.095625,0,0.000000
766,0.095750,0,0.000000
767,0.095875,0,0.000000
768,0.096000,0,0.000000
769,0.096125,0,0.000000
770,0.096250,0,0.000000
771,0.096375,0,0.000000
772,0.096500,0,0.000000
773,0.096625,0,0.000000
774,0.096750,0,0.000000
775,0.096875,0,0.000000
776,0.097000,0,0.000000
777,0.097125,0,0.000000
778,0.097250,0,0.000000
779,0.097375,0,0.000000
780,0.097500,0,0.000000
781,0.097625,0,0.000000
782,0.097750,0,0.000000
783,0.097875,0,0.000000
784,0.098000,0,0.000000
785,0.098125,0,0.000000
786,0.098250,0,0.000000
787,0.098375,0,0.000000
788,0.098500,0,0.000000
789,0.098625,0,0.000000
790,0.098750,0,0.000000
791,0.098875,0,0.000000
792,0.099000,0,0.000000
793,0.099125,0,0.000000
794,0.099250,0,0.000000
795,0.099375,0,0.000000
796,0.099500,0,0.000000
797,0.099625,0,0.000000
798,0.099750,0,0.000000
799,0.099875,0,0.000000
800,0.100000,0,0.000000
801,0.100125,0,0.000000
802,0.100250,0,0.000000
803,0.100375,0,0.000000
804,0.100500,0,0.000000
805,0.100625,0,0.000000
806,0.100750,0,0.000000
807,0.100875,0,0.000000
808,0.101000,0,0.000000
809,0.101125,0,0.000000
810,0.101250,0,0.000000
811,0.101375,0,0.000000
812,0.101500,0,0.000000
813,0.101625,0,0.000000
814,0.101750,0,0.000000
815,0.101875,0,0.000000
816,0.102000,0,0.000000
817,0.102125,0,0.000000
818,0.102250,0,0.000000
819,0.102375,0,0.000000
820,0.102500,0,0.000000
821,0.102625,0,0.000000
822,0.102750,0,0.000000
823,0.102875,0,0.000000
824,0.103000,0,0.000000
825,0.103125,0,0.000000
826,0.103250,0,0.000000
827,0.103375,0,0.000000
828,0.103500,0,0.000000
829,0.103625,0,0.000000
830,0.103750,0,0.000000
831,0.103875,0,0.000000
832,0.104000,0,0.000000
833,0.104125,0,0.000000
834,0.104250,0,0.000000
835,0.104375,0,0.000000
836,0.104500,0,0.000000
837,0.104625,0,0.000000
838,0.104750,0,0.000000
839,0.104875,0,0.000000
840,0.105000,0,0.000000
841,0.105125,0,0.000000
842,0.105250,0,0.000000
843,0.105375,0,0.000000
844,0.105500,0,0.000000
845,0.105625,0,0.000000
846,0.105750,0,0.000000
847,0.105875,0,0.000000
848,0.106000,0,0.000000
849,0.106125,0,0.000000
850,0.106250,0,0.000000
851,0.106375,0,0.000000
852,0.106500,0,0.000000
853,0.106625,0,0.000000
854,0.106750,0,0.000000
855,0.106875,0,0.000000
856,0.107000,0,0.000000
857,0.107125,0,0.000000
858,0.107250,0,0.000000
859,0.107375,0,0.000000
860,0.107500,0,0.000000
861,0.107625,0,0.000000
862,0.107750,0,0.000000
863,0.107875,0,0.000000
864,0.108000,0,0.000000
865,0.108125,0,0.000000
866,0.108250,0,0.000000
867,0.108375,0,0.000000
868,0.108500,0,0.000000
869,0.108625,0,0.000000
870,0.108750,0,0.000000
871,0.108875,0,0.000000
872,0.109000,0,0.000000
873,0.109125,0,0.000000
874,0.109250,0,0.000000
875,0.109375,0,0.000000
876,0.109500,0,0.000000
877,0.109625,0,0.000000
878,0.109750,0,0.000000
879,0.109875,0,0.000000
880,0.110000,0,0.000000
881,0.110125,0,0.000000
882,0.110250,0,0.000000
883,0.110375,0,0.000000
884,0.110500,0,0.000000
885,0.110625,0,0.000000
886,0.110750,0,0.000000
887,0.110875,0,0.000000
888,0.111000,0,0.000000
889,0.111125,0,0.000000
890,0.111250,0,0.000000
891,0.111375,0,0.000000
892,0.111500,0,0.000000
893,0.111625,0,0.000000
894,0.111750,0,0.000000
895,0.111875,0,0.000000
896,0.112000,0,0.000000
897,0.112125,0,0.000000
898,0.112250,0,0.000000
899,0.112375,0,0.000000
900,0.112500,0,0.000000
901,0.112625,0,0.000000
902,0.112750,0,0.000000
903,0.112875,0,0.000000
904,0.113000,0,0.000000
905,0.113125,0,0.000000
906,0.113250,0,0.000000
907,0.113375,0,0.000000
908,0.113500,0,0.000000
909,0.113625,0,0.000000
910,0.113750,0,0.000000
911,0.113875,0,0.000000
912,0.114000,0,0.000000
913,0.114125,0,0.000000
914,0.114250,0,0.000000
915,0.114375,0,0.000000
916,0.114500,0,0.000000
917,0.114625,0,0.000000
918,0.114750,0,0.000000
919,0.114875,0,0.000000
920,0.115000,0,0.000000
921,0.115125,0,0.000000
922,0.115250,0,0.000000
923,0.115375,0,0.000000
924,0.115500,0,0.000000
925,0.115625,0,0.000000
926,0.115750,0,0.000000
927,0.115875,0,0.000000
928,0.116000,0,0.000000
929,0.116125,0,0.000000
930,0.116250,0,0.000000
931,0.116375,0,0.000000
932,0.116500,0,0.000000
933,0.116625,0,0.000000
934,0.116750,0,0.000000
935,0.116875,0,0.000000
936,0.117000,0,0.000000
937,0.117125,0,0.000000
938,0.117250,0,0.000000
939,0.117375,0,0.000000
940,0.117500,0,0.000000
941,0.117625,0,0.000000
942,0.117750,0,0.000000
943,0.117875,0,0.000000
944,0.118000,0,0.000000
945,0.118125,0,0.000000
946,0.118250,0,0.000000
947,0.118375,0,0.000000
948,0.118500,0,0.000000
949,0.118625,0,0.000000
950,0.118750,0,0.000000
951,0.118875,0,0.000000
952,0.119000,0,0.000000
953,0.119125,0,0.000000
954,0.119250,0,0.000000
955,0.119375,0,0.000000
956,0.119500,0,0.000000
957,0.119625,0,0.000000
958,0.119750,0,0.000000
959,0.119875,0,0.000000
960,0.120000,0,0.000000
961,0.120125,0,0.000000
962,0.120250,0,0.000000
963,0.120375,0,0.000000
964,0.120500,0,0.000000
965,0.120625,0,0.000000
966,0.120750,0,0.000000
967,0.120875,0,0.000000
968,0.121000,0,0.000000
969,0.121125,0,0.000000
970,0.121250,0,0.000000
971,0.121375,0,0.000000
972,0.121500,0,0.000000
973,0.121625,0,0.000000
974,0.121750,0,0.000000
975,0.121875,0,0.000000
976,0.122000,0,0.000000
977,0.122125,0,0.000000
978,0.122250,0,0.000000
979,0.122375,0,0.000000
980,0.122500,0,0.000000
981,0.122625,0,0.000000
982,0.122750,0,0.000000
983,0.122875,0,0.000000
984,0.123000,0,0.000000
985,0.123125,0,0.000000
986,0.123250,0,0.000000
987,0.123375,0,0.000000
988,0.123500,0,0.000000
989,0.123625,0,0.000000
990,0.123750,0,0.000000
991,0.123875,0,0.000000
992,0.124000,0,0.000000
993,0.124125,0,0.000000
994,0.124250,0,0.000000
995,0.124375,0,0.000000
996,0.124500,0,0.000000
997,0.124625,0,0.000000
998,0.124750,0,0.000000
999,0.124875,0,0.000000
1000,0.125000,0,0.000000
1001,0.125125,0,0.000000
1002,0.125250,0,0.000000
1003,0.125375,0,0.000000
1004,0.125500,0,0.000000
1005,0.125625,0,0.000000
1006,0.125750,0,0.000000
1007,0.125875,0,0.000000
1008,0.126000,0,0.000000
1009,0.126125,0,0.000000
1010,0.126250,0,0.000000
1011,0.126375,0,0.000000
1012,0.126500,0,0.000000
1013,0.126625,0,0.000000
1014,0.126750,0,0.000000
1015,0.126875,0,0.000000
1016,0.127000,0,0.000000
1017,0.127125,0,0.000000
1018,0.127250,0,0.000000
1019,0.127375,0,0.000000
1020,0.127500,0,0.000000
1021,0.127625,0,0.000000
1022,0.127750,0,0.000000
1023,0.127875,0,0.000000
1024,0.128000,0,0.000000
1025,0.128125,0,0.000000
1026,0.128250,0,0.000000
1027,0.128375,0,0.000000
1028,0.128500,0,0.000000
1029,0.128625,0,0.000000
1030,0.128750,0,0.000000
1031,0.128875,0,0.000000
1032,0.129000,0,0.000000
1033,0.129125,0,0.000000
1034,0.129250,0,0.000000
1035,0.129375,0,0.000000
1036,0.129500,0,0.000000
1037,0.129625,0,0.000000
1038,0.129750,0,0.000000
1039,0.129875,0,0.000000
1040,0.130000,0,0.000000
1041,0.130125,0,0.000000
1042,0.130250,0,0.000000
1043,0.130375,0,0.000000
1044,0.130500,0,0.000000
1045,0.130625,0,0.000000
1046,0.130750,0,0.000000
1047,0.130875,0,0.000000
1048,0.131000,0,0.000000
1049,0.131125,0,0.000000
1050,0.131250,0,0.000000
1051,0.131375,0,0.000000
1052,0.131500,0,0.000000
1053,0.131625,0,0.000000
1054,0.131750,0,0.000000
1055,0.131875,0,0.000000
1056,0.132000,0,0.000000
1057,0.132125,0,0.000000
1058,0.132250,0,0.000000
1059,0.132375,0,0.000000
1060,0.132500,0,0.000000
1061,0.132625,0,0.000000
1062,0.132750,0,0.000000
1063,0.132875,0,0.000000
1064,0.133000,0,0.000000
1065,0.133125,0,0.000000
1066,0.133250,0,0.000000
1067,0.133375,0,0.000000
1068,0.133500,0,0.000000
1069,0.133625,0,0.000000
1070,0.133750,0,0.000000
1071,0.133875,0,0.000000
1072,0.134000,0,0.000000
1073,0.134125,0,0.000000
1074,0.134250,0,0.000000
1075,0.134375,0,0.000000
1076,0.134500,0,0.000000
1077,0.134625,0,0.000000
1078,0.134750,0,0.000000
1079,0.134875,0,0.000000
1080,0.135000,0,0.000000
1081,0.135125,0,0.000000
1082,0.135250,0,0.000000
1083,0.135375,0,0.000000
1084,0.135500,0,0.000000
1085,0.135625,0,0.000000
1086,0.135750,0,0.000000
1087,0.135875,0,0.000000
1088,0.136000,0,0.000000
1089,0.136125,0,0.000000
1090,0.136250,0,0.000000
1091,0.136375,0,0.000000
1092,0.136500,0,0.000000
1093,0.136625,0,0.000000
1094,0.136750,0,0.000000
1095,0.136875,0,0.000000
1096,0.137000,0,0.000000
1097,0.137125,0,0.000000
1098,0.137250,0,0.000000
1099,0.137375,0,0.000000
1100,0.137500,0,0.000000
1101,0.137625,0,0.000000
1102,0.137750,0,0.000000
1103,0.137875,0,0.000000
1104,0.138000,0,0.000000
1105,0.138125,0,0.000000
1106,0.138250,0,0.000000
1107,0.138375,0,0.000000
1108,0.138500,0,0.000000
1109,0.138625,0,0.000000
1110,0.138750,0,0.000000
1111,0.138875,0,0.000000
1112,0.139000,0,0.000000
1113,0.139125,0,0.000000
1114,0.139250,0,0.000000
1115,0.139375,0,0.000000
1116,0.139500,0,0.000000
1117,0.139625,0,0.000000
1118,0.139750,0,0.000000
1119,0.139875,0,0.000000
1120,0.140000,0,0.000000
1121,0.140125,0,0.000000
1122,0.140250,0,0.000000
1123,0.140375,0,0.000000
1124,0.140500,0,0.000000
1125,0.140625,0,0.000000
1126,0.140750,0,0.000000
1127,0.140875,0,0.000000
1128,0.141000,0,0.000000
1129,0.141125,0,0.000000
1130,0.141250,0,0.000000
1131,0.141375,0,0.000000
1132,0.141500,0,0.000000
1133,0.141625,0,0.000000
1134,0.141750,0,0.000000
1135,0.141875,0,0.000000
1136,0.142000,0,0.000000
1137,0.142125,0,0.000000
1138,0.142250,0,0.000000
1139,0.142375,0,0.000000
1140,0.142500,0,0.000000
1141,0.142625,0,0.000000
1142,0.142750,0,0.000000
1143,0.142875,0,0.000000
1144,0.143000,0,0.000000
1145,0.143125,0,0.000000
1146,0.143250,0,0.000000
1147,0.143375,0,0.000000
1148,0.143500,0,0.000000
1149,0.143625,0,0.000000
1150,0.143750,0,0.000000
1151,0.143875,0,0.000000
1152,0.144000,0,0.000000
1153,0.144125,0,0.000000
1154,0.144250,0,0.000000
1155,0.144375,0,0.000000
1156,0.144500,0,0.000000
1157,0.144625,0,0.000000
1158,0.144750,0,0.000000
1159,0.144875,0,0.000000
1160,0.145000,0,0.000000
1161,0.145125,0,0.000000
1162,0.145250,0,0.000000
1163,0.145375,0,0.000000
1164,0.145500,0,0.000000
1165,0.145625,0,0.000000
1166,0.145750,0,0.000000
1167,0.145875,0,0.000000
1168,0.146000,0,0.000000
1169,0.146125,0,0.000000
1170,0.146250,0,0.000000
1171,0.146375,0,0.000000
1172,0.146500,0,0.000000
1173,0.146625,0,0.000000
1174,0.146750,0,0.000000
1175,0.146875,0,0.000000
1176,0.147000,0,0.000000
1177,0.147125,0,0.000000
1178,0.147250,0,0.000000
1179,0.147375,0,0.000000
1180,0.147500,0,0.000000
1181,0.147625,0,0.000000
1182,0.147750,0,0.000000
1183,0.147875,0,0.000000
1184,0.148000,0,0.000000
1185,0.148125,0,0.000000
1186,0.148250,0,0.000000
1187,0.148375,0,0.000000
1188,0.148500,0,0.000000
1189,0.148625,0,0.000000
1190,0.148750,0,0.000000
1191,0.148875,0,0.000000
1192,0.149000,0,0.000000
1193,0.149125,0,0.000000
1194,0.149250,0,0.000000
1195,0.149375,0,0.000000
1196,0.149500,0,0.000000
1197,0.149625,0,0.000000
1198,0.149750,0,0.000000
1199,0.149875,0,0.000000
1200,0.150000,0,0.000000
1201,0.150125,0,0.000000
1202,0.150250,0,0.000000
1203,0.150375,0,0.000000
1204,0.150500,0,0.000000
1205,0.150625,0,0.000000
1206,0.150750,0,0.000000
1207,0.150875,0,0.000000
1208,0.151000,0,0.000000
1209,0.151125,0,0.000000
1210,0.151250,0,0.000000
1211,0.151375,0,0.000000
1212,0.151500,0,0.000000
1213,0.151625,0,0.000000
1214,0.151750,0,0.000000
1215,0.151875,0,0.000000
1216,0.152000,0,0.000000
1217,0.152125,0,0.000000
1218,0.152250,0,0.000000
1219,0.152375,0,0.000000
1220,0.152500,0,0.000000
1221,0.152625,0,0.000000
1222,0.152750,0,0.000000
1223,0.152875,0,0.000000
1224,0.153000,0,0.000000
1225,0.153125,0,0.000000
1226,0.153250,0,0.000000
1227,0.153375,0,0.000000
1228,0.153500,0,0.000000
1229,0.153625,0,0.000000
1230,0.153750,0,0.000000
1231,0.153875,0,0.000000
1232,0.154000,0,0.000000
1233,0.154125,0,0.000000
1234,0.154250,0,0.000000
1235,0.154375,0,0.000000
1236,0.154500,0,0.000000
1237,0.154625,0,0.000000
1238,0.154750,0,0.000000
1239,0.154875,0,0.000000
1240,0.155000,0,0.000000
1241,0.155125,0,0.000000
1242,0.155250,0,0.000000
1243,0.155375,0,0.000000
1244,0.155500,0,0.000000
1245,0.155625,0,0.000000
1246,0.155750,0,0.000000
1247,0.155875,0,0.000000
1248,0.156000,0,0.000000
1249,0.156125,0,0.000000
1250,0.156250,0,0.000000
1251,0.156375,0,0.000000
1252,0.156500,0,0.000000
1253,0.156625,0,0.000000
1254,0.156750,0,0.000000
1255,0.156875,0,0.000000
1256,0.157000,0,0.000000
1257,0.157125,0,0.000000
1258,0.157250,0,0.000000
1259,0.157375,0,0.000000
1260,0.157500,0,0.000000
1261,0.157625,0,0.000000
1262,0.157750,0,0.000000
1263,0.157875,0,0.000000
1264,0.158000,0,0.000000
1265,0.158125,0,0.000000
1266,0.158250,0,0.000000
1267,0.158375,0,0.000000
1268,0.158500,0,0.000000
1269,0.158625,0,0.000000
1270,0.158750,0,0.000000
1271,0.158875,0,0.000000
1272,0.159000,0,0.000000
1273,0.159125,0,0.000000
1274,0.159250,0,0.000000
1275,0.159375,0,0.000000
1276,0.159500,0,0.000000
1277,0.159625,0,0.000000
1278,0.159750,0,0.000000
1279,0.159875,0,0.000000
1280,0.160000,0,0.000000
1281,0.160125,0,0.000000
1282,0.160250,0,0.000000
1283,0.160375,0,0.000000
1284,0.160500,0,0.000000
1285,0.160625,0,0.000000
1286,0.160750,0,0.000000
1287,0.160875,0,0.000000
1288,0.161000,0,0.000000
1289,0.161125,0,0.000000
1290,0.161250,0,0.000000
1291,0.161375,0,0.000000
1292,0.161500,0,0.000000
1293,0.161625,0,0.000000
1294,0.161750,0,0.000000
1295,0.161875,0,0.000000
1296,0.162000,0,0.000000
1297,0.162125,0,0.000000
1298,0.162250,0,0.000000
1299,0.162375,0,0.000000
1300,0.162500,0,0.000000
1301,0.162625,0,0.000000
1302,0.162750,0,0.000000
1303,0.162875,0,0.000000
1304,0.163000,0,0.000000
1305,0.163125,0,0.000000
1306,0.163250,0,0.000000
1307,0.163375,0,0.000000
1308,0.163500,0,0.000000
1309,0.163625,0,0.000000
1310,0.163750,0,0.000000
1311,0.163875,0,0.000000
1312,0.164000,0,0.000000
1313,0.164125,0,0.000000
1314,0.164250,0,0.000000
1315,0.164375,0,0.000000
1316,0.164500,0,0.000000
1317,0.164625,0,0.000000
1318,0.164750,0,0.000000
1319,0.164875,0,0.000000
1320,0.165000,0,0.000000
1321,0.165125,0,0.000000
1322,0.165250,0,0.000000
1323,0.165375,0,0.000000
1324,0.165500,0,0.000000
1325,0.165625,0,0.000000
1326,0.165750,0,0.000000
1327,0.165875,0,0.000000
1328,0.166000,0,0.000000
1329,0.166125,0,0.000000
1330,0.166250,0,0.000000
1331,0.166375,0,0.000000
1332,0.166500,0,0.000000
1333,0.166625,0,0.000000
1334,0.166750,0,0.000000
1335,0.166875,0,0.000000
1336,0.167000,0,0.000000
1337,0.167125,0,0.000000
1338,0.167250,0,0.000000
1339,0.167375,0,0.000000
1340,0.167500,0,0.000000
1341,0.167625,0,0.000000
1342,0.167750,0,0.000000
1343,0.167875,0,0.000000
1344,0.168000,0,0.000000
1345,0.168125,0,0.000000
1346,0.168250,0,0.000000
1347,0.168375,0,0.000000
1348,0.168500,0,0.000000
1349,0.168625,0,0.000000
1350,0.168750,0,0.000000
1351,0.168875,0,0.000000
1352,0.169000,0,0.000000
1353,0.169125,0,0.000000
1354,0.169250,0,0.000000
1355,0.169375,0,0.000000
1356,0.169500,0,0.000000
1357,0.169625,0,0.000000
1358,0.169750,0,0.000000
1359,0.169875,0,0.000000
1360,0.170000,0,0.000000
1361,0.170125,0,0.000000
1362,0.170250,0,0.000000
1363,0.170375,0,0.000000
1364,0.170500,0,0.000000
1365,0.170625,0,0.000000
1366,0.170750,0,0.000000
1367,0.170875,0,0.000000
1368,0.171000,0,0.000000
1369,0.171125,0,0.000000
1370,0.171250,0,0.000000
1371,0.171375,0,0.000000
1372,0.171500,0,0.000000
1373,0.171625,0,0.000000
1374,0.171750,0,0.000000
1375,0.171875,0,0.000000
1376,0.172000,0,0.000000
1377,0.172125,0,0.000000
1378,0.172250,0,0.000000
1379,0.172375,0,0.000000
1380,0.172500,0,0.000000
1381,0.172625,0,0.000000
1382,0.172750,0,0.000000
1383,0.172875,0,0.000000
1384,0.173000,0,0.000000
1385,0.173125,0,0.000000
1386,0.173250,0,0.000000
1387,0.173375,0,0.000000
1388,0.173500,0,0.000000
1389,0.173625,0,0.000000
1390,0.173750,0,0.000000
1391,0.173875,0,0.000000
1392,0.174000,0,0.000000
1393,0.174125,0,0.000000
1394,0.174250,0,0.000000
1395,0.174375,0,0.000000
1396,0.174500,0,0.000000
1397,0.174625,0,0.000000
1398,0.174750,0,0.000000
1399,0.174875,0,0.000000
1400,0.175000,0,0.000000
1401,0.175125,0,0.000000
1402,0.175250,0,0.000000
1403,0.175375,0,0.000000
1404,0.175500,0,0.000000
1405,0.175625,0,0.000000
1406,0.175750,0,0.000000
1407,0.175875,0,0.000000
1408,0.176000,0,0.000000
1409,0.176125,0,0.000000
1410,0.176250,0,0.000000
1411,0.176375,0,0.000000
1412,0.176500,0,0.000000
1413,0.176625,0,0.000000
1414,0.176750,0,0.000000
1415,0.176875,0,0.000000
1416,0.177000,0,0.000000
1417,0.177125,0,0.000000
1418,0.177250,0,0.000000
1419,0.177375,0,0.000000
1420,0.177500,0,0.000000
1421,0.177625,0,0.000000
1422,0.177750,0,0.000000
1423,0.177875,0,0.000000
1424,0.178000,0,0.000000
1425,0.178125,0,0.000000
1426,0.178250,0,0.000000
1427,0.178375,0,0.000000
1428,0.178500,0,0.000000
1429,0.178625,0,0.000000
1430,0.178750,0,0.000000
1431,0.178875,0,0.000000
1432,0.179000,0,0.000000
1433,0.179125,0,0.000000
1434,0.179250,0,0.000000
1435,0.179375,0,0.000000
1436,0.179500,0,0.000000
1437,0.179625,0,0.000000
1438,0.179750,0,0.000000
1439,0.179875,0,0.000000
1440,0.180000,0,0.000000
1441,0.180125,0,0.000000
1442,0.180250,0,0.000000
1443,0.180375,0,0.000000
1444,0.180500,0,0.000000
1445,0.180625,0,0.000000
1446,0.180750,0,0.000000
1447,0.180875,0,0.000000
1448,0.181000,0,0.000000
1449,0.181125,0,0.000000
1450,0.181250,0,0.000000
1451,0.181375,0,0.000000
1452,0.181500,0,0.000000
1453,0.181625,0,0.000000
1454,0.181750,0,0.000000
1455,0.181875,0,0.000000
1456,0.182000,0,0.000000
1457,0.182125,0,0.000000
1458,0.182250,0,0.000000
1459,0.182375,0,0.000000
1460,0.182500,0,0.000000
1461,0.182625,0,0.000000
1462,0.182750,0,0.000000
1463,0.182875,0,0.000000
1464,0.183000,0,0.000000
1465,0.183125,0,0.000000
1466,0.183250,0,0.000000
1467,0.183375,0,0.000000
1468,0.183500,0,0.000000
1469,0.183625,0,0.000000
1470,0.183750,0,0.000000
1471,0.183875,0,0.000000
1472,0.184000,0,0.000000
1473,0.184125,0,0.000000
1474,0.184250,0,0.000000
1475,0.184375,0,0.000000
1476,0.184500,0,0.000000
1477,0.184625,0,0.000000
1478,0.184750,0,0.000000
1479,0.184875,0,0.000000
1480,0.185000,0,0.000000
1481,0.185125,0,0.000000
1482,0.185250,0,0.000000
1483,0.185375,0,0.000000
1484,0.185500,0,0.000000
1485,0.185625,0,0.000000
1486,0.185750,0,0.000000
1487,0.185875,0,0.000000
1488,0.186000,0,0.000000
1489,0.186125,0,0.000000
1490,0.186250,0,0.000000
1491,0.186375,0,0.000000
1492,0.186500,0,0.000000
1493,0.186625,0,0.000000
1494,0.186750,0,0.000000
1495,0.186875,0,0.000000
1496,0.187000,0,0.000000
1497,0.187125,0,0.000000
1498,0.187250,0,0.000000
1499,0.187375,0,0.000000
1500,0.187500,0,0.000000
1501,0.187625,0,0.000000
1502,0.187750,0,0.000000
1503,0.187875,0,0.000000
1504,0.188000,0,0.000000
1505,0.188125,0,0.000000
1506,0.188250,0,0.000000
1507,0.188375,0,0.000000
1508,0.188500,0,0.000000
1509,0.188625,0,0.000000
1510,0.188750,0,0.000000
1511,0.188875,0,0.000000
1512,0.189000,0,0.000000
1513,0.189125,0,0.000000
1514,0.189250,0,0.000000
1515,0.189375,0,0.000000
1516,0.189500,0,0.000000
1517,0.189625,0,0.000000
1518,0.189750,0,0.000000
1519,0.189875,0,0.000000
1520,0.190000,0,0.000000
1521,0.190125,0,0.000000
1522,0.190250,0,0.000000
1523,0.190375,0,0.000000
1524,0.190500,0,0.000000
1525,0.190625,0,0.000000
1526,0.190750,0,0.000000
1527,0.190875,0,0.000000
1528,0.191000,0,0.000000
1529,0.191125,0,0.000000
1530,0.191250,0,0.000000
1531,0.191375,0,0.000000
1532,0.191500,0,0.000000
1533,0.191625,0,0.000000
1534,0.191750,0,0.000000
1535,0.191875,0,0.000000
1536,0.192000,0,0.000000
1537,0.192125,0,0.000000
1538,0.192250,0,0.000000
1539,0.192375,0,0.000000
1540,0.192500,0,0.000000
1541,0.192625,0,0.000000
1542,0.192750,0,0.000000
1543,0.192875,0,0.000000
1544,0.193000,0,0.000000
1545,0.193125,0,0.000000
1546,0.193250,0,0.000000
1547,0.193375,0,0.000000
1548,0.193500,0,0.000000
1549,0.193625,0,0.000000
1550,0.193750,0,0.000000
1551,0.193875,0,0.000000
1552,0.194000,0,0.000000
1553,0.194125,0,0.000000
1554,0.194250,0,0.000000
1555,0.194375,0,0.000000
1556,0.194500,0,0.000000
1557,0.194625,0,0.000000
1558,0.194750,0,0.000000
1559,0.194875,0,0.000000
1560,0.195000,0,0.000000
1561,0.195125,0,0.000000
1562,0.195250,0,0.000000
1563,0.195375,0,0.000000
1564,0.195500,0,0.000000
1565,0.195625,0,0.000000
1566,0.195750,0,0.000000
1567,0.195875,0,0.000000
1568,0.196000,0,0.000000
1569,0.196125,0,0.000000
1570,0.196250,0,0.000000
1571,0.196375,0,0.000000
1572,0.196500,0,0.000000
1573,0.196625,0,0.000000
1574,0.196750,0,0.000000
1575,0.196875,0,0.000000
1576,0.197000,0,0.000000
1577,0.197125,0,0.000000
1578,0.197250,0,0.000000
1579,0.197375,0,0.000000
1580,0.197500,0,0.000000
1581,0.197625,0,0.000000
1582,0.197750,0,0.000000
1583,0.197875,0,0.000000
1584,0.198000,0,0.000000
1585,0.198125,0,0.000000
1586,0.198250,0,0.000000
1587,0.198375,0,0.000000
1588,0.198500,0,0.000000
1589,0.198625,0,0.000000
1590,0.198750,0,0.000000
1591,0.198875,0,0.000000
1592,0.199000,0,0.000000
1593,0.199125,0,0.000000
1594,0.199250,0,0.000000
1595,0.199375,0,0.000000
1596,0.199500,0,0.000000
1597,0.199625,0,0.000000
1598,0.199750,0,0.000000
1599,0.199875,0,0.000000
1600,0.200000,0,0.000000
1601,0.200125,0,0.000000
1602,0.200250,0,0.000000
1603,0.200375,0,0.000000
1604,0.200500,0,0.000000
1605,0.200625,0,0.000000
1606,0.200750,0,0.000000
1607,0.200875,0,0.000000
1608,0.201000,0,0.000000
1609,0.201125,0,0.000000
1610,0.201250,0,0.000000
1611,0.201375,0,0.000000
1612,0.201500,0,0.000000
1613,0.201625,0,0.000000
1614,0.201750,0,0.000000
1615,0.201875,0,0.000000
1616,0.202000,0,0.000000
1617,0.202125,0,0.000000
1618,0.202250,0,0.000000
1619,0.202375,0,0.000000
1620,0.202500,0,0.000000
1621,0.202625,0,0.000000
1622,0.202750,0,0.000000
1623,0.202875,0,0.000000
1624,0.203000,0,0.000000
1625,0.203125,0,0.000000
1626,0.203250,0,0.000000
1627,0.203375,0,0.000000
1628,0.203500,0,0.000000
1629,0.203625,0,0.000000
1630,0.203750,0,0.000000
1631,0.203875,0,0.000000
1632,0.204000,0,0.000000
1633,0.204125,0,0.000000
1634,0.204250,0,0.000000
1635,0.204375,0,0.000000
1636,0.204500,0,0.000000
1637,0.204625,0,0.000000
1638,0.204750,0,0.000000
1639,0.204875,0,0.000000
1640,0.205000,0,0.000000
1641,0.205125,0,0.000000
1642,0.205250,0,0.000000
1643,0.205375,0,0.000000
1644,0.205500,0,0.000000
1645,0.205625,0,0.000000
1646,0.205750,0,0.000000
1647,0.205875,0,0.000000
1648,0.206000,0,0.000000
1649,0.206125,0,0.000000
1650,0.206250,0,0.000000
1651,0.206375,0,0.000000
1652,0.206500,0,0.000000
1653,0.206625,0,0.000000
1654,0.206750,0,0.000000
1655,0.206875,0,0.000000
1656,0.207000,0,0.000000
1657,0.207125,0,0.000000
1658,0.207250,0,0.000000
1659,0.207375,0,0.000000
1660,0.207500,0,0.000000
1661,0.207625,0,0.000000
1662,0.207750,0,0.000000
1663,0.207875,0,0.000000
1664,0.208000,0,0.000000
1665,0.208125,0,0.000000
1666,0.208250,0,0.000000
1667,0.208375,0,0.000000
1668,0.208500,0,0.000000
1669,0.208625,0,0.000000
1670,0.208750,0,0.000000
1671,0.208875,0,0.000000
1672,0.209000,0,0.000000
1673,0.209125,0,0.000000
1674,0.209250,0,0.000000
1675,0.209375,0,0.000000
1676,0.209500,0,0.000000
1677,0.209625,0,0.000000
1678,0.209750,0,0.000000
1679,0.209875,0,0.000000
1680,0.210000,0,0.000000
1681,0.210125,0,0.000000
1682,0.210250,0,0.000000
1683,0.210375,0,0.000000
1684,0.210500,0,0.000000
1685,0.210625,0,0.000000
1686,0.210750,0,0.000000
1687,0.210875,0,0.000000
1688,0.211000,0,0.000000
1689,0.211125,0,0.000000
1690,0.211250,0,0.000000
1691,0.211375,0,0.000000
1692,0.211500,0,0.000000
1693,0.211625,0,0.000000
1694,0.211750,0,0.000000
1695,0.211875,0,0.000000
1696,0.212000,0,0.000000
1697,0.212125,0,0.000000
1698,0.212250,0,0.000000
1699,0.212375,0,0.000000
1700,0.212500,0,0.000000
1701,0.212625,0,0.000000
1702,0.212750,0,0.000000
1703,0.212875,0,0.000000
1704,0.213000,0,0.000000
1705,0.213125,0,0.000000
1706,0.213250,0,0.000000
1707,0.213375,0,0.000000
1708,0.213500,0,0.000000
1709,0.213625,0,0.000000
1710,0.213750,0,0.000000
1711,0.213875,0,0.000000
1712,0.214000,0,0.000000
1713,0.214125,0,0.000000
1714,0.214250,0,0.000000
1715,0.214375,0,0.000000
1716,0.214500,0,0.000000
1717,0.214625,0,0.000000
1718,0.214750,0,0.000000
1719,0.214875,0,0.000000
1720,0.215000,0,0.000000
1721,0.215125,0,0.000000
1722,0.215250,0,0.000000
1723,0.215375,0,0.000000
1724,0.215500,0,0.000000
1725,0.215625,0,0.000000
1726,0.215750,0,0.000000
1727,0.215875,0,0.000000
1728,0.216000,0,0.000000
1729,0.216125,0,0.000000
1730,0.216250,0,0.000000
1731,0.216375,0,0.000000
1732,0.216500,0,0.000000
1733,0.216625,0,0.000000
1734,0.216750,0,0.000000
1735,0.216875,0,0.000000
1736,0.217000,0,0.000000
1737,0.217125,0,0.000000
1738,0.217250,0,0.000000
1739,0.217375,0,0.000000
1740,0.217500,0,0.000000
1741,0.217625,0,0.000000
1742,0.217750,0,0.000000
1743,0.217875,0,0.000000
1744,0.218000,0,0.000000
1745,0.218125,0,0.000000
1746,0.218250,0,0.000000
1747,0.218375,0,0.000000
1748,0.218500,0,0.000000
1749,0.218625,0,0.000000
1750,0.218750,0,0.000000
1751,0.218875,0,0.000000
1752,0.219000,0,0.000000
1753,0.219125,0,0.000000
1754,0.219250,0,0.000000
1755,0.219375,0,0.000000
1756,0.219500,0,0.000000
1757,0.219625,0,0.000000
1758,0.219750,0,0.000000
1759,0.219875,0,0.000000
1760,0.220000,0,0.000000
1761,0.220125,0,0.000000
1762,0.220250,0,0.000000
1763,0.220375,0,0.000000
1764,0.220500,0,0.000000
1765,0.220625,0,0.000000
1766,0.220750,0,0.000000
1767,0.220875,0,0.000000
1768,0.221000,0,0.000000
1769,0.221125,0,0.000000
1770,0.221250,0,0.000000
1771,0.221375,0,0.000000
1772,0.221500,0,0.000000
1773,0.221625,0,0.000000
1774,0.221750,0,0.000000
1775,0.221875,0,0.000000
1776,0.222000,0,0.000000
1777,0.222125,0,0.000000
1778,0.222250,0,0.000000
1779,0.222375,0,0.000000
1780,0.222500,0,0.000000
1781,0.222625,0,0.000000
1782,0.222750,0,0.000000
1783,0.222875,0,0.000000
1784,0.223000,0,0.000000
1785,0.223125,0,0.000000
1786,0.223250,0,0.000000
1787,0.223375,0,0.000000
1788,0.223500,0,0.000000
1789,0.223625,0,0.000000
1790,0.223750,0,0.000000
1791,0.223875,0,0.000000
1792,0.224000,0,0.000000
1793,0.224125,0,0.000000
1794,0.224250,0,0.000000
1795,0.224375,0,0.000000
1796,0.224500,0,0.000000
1797,0.224625,0,0.000000
1798,0.224750,0,0.000000
1799,0.224875,0,0.000000
1800,0.225000,0,0.000000
1801,0.225125,0,0.000000
1802,0.225250,0,0.000000
1803,0.225375,0,0.000000
1804,0.225500,0,0.000000
1805,0.225625,0,0.000000
1806,0.225750,0,0.000000
1807,0.225875,0,0.000000
1808,0.226000,0,0.000000
1809,0.226125,0,0.000000
1810,0.226250,0,0.000000
1811,0.226375,0,0.000000
1812,0.226500,0,0.000000
1813,0.226625,0,0.000000
1814,0.226750,0,0.000000
1815,0.226875,0,0.000000
1816,0.227000,0,0.000000
1817,0.227125,0,0.000000
1818,0.227250,0,0.000000
1819,0.227375,0,0.000000
1820,0.227500,0,0.000000
1821,0.227625,0,0.000000
1822,0.227750,0,0.000000
1823,0.227875,0,0.000000
1824,0.228000,0,0.000000
1825,0.228125,0,0.000000
1826,0.228250,0,0.000000
1827,0.228375,0,0.000000
1828,0.228500,0,0.000000
1829,0.228625,0,0.000000
1830,0.228750,0,0.000000
1831,0.228875,0,0.000000
1832,0.229000,0,0.000000
1833,0.229125,0,0.000000
1834,0.229250,0,0.000000
1835,0.229375,0,0.000000
1836,0.229500,0,0.000000
1837,0.229625,0,0.000000
1838,0.229750,0,0.000000
1839,0.229875,0,0.000000
1840,0.230000,0,0.000000
1841,0.230125,0,0.000000
1842,0.230250,0,0.000000
1843,0.230375,0,0.000000
1844,0.230500,0,0.000000
1845,0.230625,0,0.000000
1846,0.230750,0,0.000000
1847,0.230875,0,0.000000
1848,0.231000,0,0.000000
1849,0.231125,0,0.000000
1850,0.231250,0,0.000000
1851,0.231375,0,0.000000
1852,0.231500,0,0.000000
1853,0.231625,0,0.000000
1854,0.231750,0,0.000000
1855,0.231875,0,0.000000
1856,0.232000,0,0.000000
1857,0.232125,0,0.000000
1858,0.232250,0,0.000000
1859,0.232375,0,0.000000
1860,0.232500,0,0.000000
1861,0.232625,0,0.000000
1862,0.232750,0,0.000000
1863,0.232875,0,0.000000
1864,0.233000,0,0.000000
1865,0.233125,0,0.000000
1866,0.233250,0,0.000000
1867,0.233375,0,0.000000
1868,0.233500,0,0.000000
1869,0.233625,0,0.000000
1870,0.233750,0,0.000000
1871,0.233875,0,0.000000
1872,0.234000,0,0.000000
1873,0.234125,0,0.000000
1874,0.234250,0,0.000000
1875,0.234375,0,0.000000
1876,0.234500,0,0.000000
1877,0.234625,0,0.000000
1878,0.234750,0,0.000000
1879,0.234875,0,0.000000
1880,0.235000,0,0.000000
1881,0.235125,0,0.000000
1882,0.235250,0,0.000000
1883,0.235375,0,0.000000
1884,0.235500,0,0.000000
1885,0.235625,0,0.000000
1886,0.235750,0,0.000000
1887,0.235875,0,0.000000
1888,0.236000,0,0.000000
1889,0.236125,0,0.000000
1890,0.236250,0,0.000000
1891,0.236375,0,0.000000
1892,0.236500,0,0.000000
1893,0.236625,0,0.000000
1894,0.236750,0,0.000000
1895,0.236875,0,0.000000
1896,0.237000,0,0.000000
1897,0.237125,0,0.000000
1898,0.237250,0,0.000000
1899,0.237375,0,0.000000
1900,0.237500,0,0.000000
1901,0.237625,0,0.000000
1902,0.237750,0,0.000000
1903,0.237875,0,0.000000
1904,0.238000,0,0.000000
1905,0.238125,0,0.000000
1906,0.238250,0,0.000000
1907,0.238375,0,0.000000
1908,0.238500,0,0.000000
1909,0.238625,0,0.000000
1910,0.238750,0,0.000000
1911,0.238875,0,0.000000
1912,0.239000,0,0.000000
1913,0.239125,0,0.000000
1914,0.239250,0,0.000000
1915,0.239375,0,0.000000
1916,0.239500,0,0.000000
1917,0.239625,0,0.000000
1918,0.239750,0,0.000000
1919,0.239875,0,0.000000
1920,0.240000,0,0.000000
1921,0.240125,0,0.000000
1922,0.240250,0,0.000000
1923,0.240375,0,0.000000
1924,0.240500,0,0.000000
1925,0.240625,0,0.000000
1926,0.240750,0,0.000000
1927,0.240875,0,0.000000
1928,0.241000,0,0.000000
1929,0.241125,0,0.000000
1930,0.241250,0,0.000000
1931,0.241375,0,0.000000
1932,0.241500,0,0.000000
1933,0.241625,0,0.000000
1934,0.241750,0,0.000000
1935,0.241875,0,0.000000
1936,0.242000,0,0.000000
1937,0.242125,0,0.000000
1938,0.242250,0,0.000000
1939,0.242375,0,0.000000
1940,0.242500,0,0.000000
1941,0.242625,0,0.000000
1942,0.242750,0,0.000000
1943,0.242875,0,0.000000
1944,0.243000,0,0.000000
1945,0.243125,0,0.000000
1946,0.243250,0,0.000000
1947,0.243375,0,0.000000
1948,0.243500,0,0.000000
1949,0.243625,0,0.000000
1950,0.243750,0,0.000000
1951,0.243875,0,0.000000
1952,0.244000,0,0.000000
1953,0.244125,0,0.000000
1954,0.244250,0,0.000000
1955,0.244375,0,0.000000
1956,0.244500,0,0.000000
1957,0.244625,0,0.000000
1958,0.244750,0,0.000000
1959,0.244875,0,0.000000
1960,0.245000,0,0.000000
1961,0.245125,0,0.000000
1962,0.245250,0,0.000000
1963,0.245375,0,0.000000
1964,0.245500,0,0.000000
1965,0.245625,0,0.000000
1966,0.245750,0,0.000000
1967,0.245875,0,0.000000
1968,0.246000,0,0.000000
1969,0.246125,0,0.000000
1970,0.246250,0,0.000000
1971,0.246375,0,0.000000
1972,0.246500,0,0.000000
1973,0.246625,0,0.000000
1974,0.246750,0,0.000000
1975,0.246875,0,0.000000
1976,0.247000,0,0.000000
1977,0.247125,0,0.000000
1978,0.247250,0,0.000000
1979,0.247375,0,0.000000
1980,0.247500,0,0.000000
1981,0.247625,0,0.000000
1982,0.247750,0,0.000000
1983,0.247875,0,0.000000
1984,0.248000,0,0.000000
1985,0.248125,0,0.000000
1986,0.248250,0,0.000000
1987,0.248375,0,0.000000
1988,0.248500,0,0.000000
1989,0.248625,0,0.000000
1990,0.248750,0,0.000000
1991,0.248875,0,0.000000
1992,0.249000,0,0.000000
1993,0.249125,0,0.000000
1994,0.249250,0,0.000000
1995,0.249375,0,0.000000
1996,0.249500,0,0.000000
1997,0.249625,0,0.000000
1998,0.249750,0,0.000000
1999,0.249875,0,0.000000
2000,0.250000,0,0.000000
2001,0.250125,0,0.000000
2002,0.250250,0,0.000000
2003,0.250375,0,0.000000
2004,0.250500,0,0.000000
2005,0.250625,0,0.000000
2006,0.250750,0,0.000000
2007,0.250875,0,0.000000
2008,0.251000,0,0.000000
2009,0.251125,0,0.000000
2010,0.251250,0,0.000000
2011,0.251375,0,0.000000
2012,0.251500,0,0.000000
2013,0.251625,0,0.000000
2014,0.251750,0,0.000000
2015,0.251875,0,0.000000
2016,0.252000,0,0.000000
2017,0.252125,0,0.000000
2018,0.252250,0,0.000000
2019,0.252375,0,0.000000
2020,0.252500,0,0.000000
2021,0.252625,0,0.000000
2022,0.252750,0,0.000000
2023,0.252875,0,0.000000
2024,0.253000,0,0.000000
2025,0.253125,0,0.000000
2026,0.253250,0,0.000000
2027,0.253375,0,0.000000
2028,0.253500,0,0.000000
2029,0.253625,0,0.000000
2030,0.253750,0,0.000000
2031,0.253875,0,0.000000
2032,0.254000,0,0.000000
2033,0.254125,0,0.000000
2034,0.254250,0,0.000000
2035,0.254375,0,0.000000
2036,0.254500,0,0.000000
2037,0.254625,0,0.000000
2038,0.254750,0,0.000000
2039,0.254875,0,0.000000
2040,0.255000,0,0.000000
2041,0.255125,0,0.000000
2042,0.255250,0,0.000000
2043,0.255375,0,0.000000
2044,0.255500,0,0.000000
2045,0.255625,0,0.000000
2046,0.255750,0,0.000000
2047,0.255875,0,0.000000
2048,0.256000,0,0.000000
2049,0.256125,0,0.000000
2050,0.256250,0,0.000000
2051,0.256375,0,0.000000
2052,0.256500,0,0.000000
2053,0.256625,0,0.000000
2054,0.256750,0,0.000000
2055,0.256875,0,0.000000
2056,0.257000,0,0.000000
2057,0.257125,0,0.000000
2058,0.257250,0,0.000000
2059,0.257375,0,0.000000
2060,0.257500,0,0.000000
2061,0.257625,0,0.000000
2062,0.257750,0,0.000000
2063,0.257875,0,0.000000
2064,0.258000,0,0.000000
2065,0.258125,0,0.000000
2066,0.258250,0,0.000000
2067,0.258375,0,0.000000
2068,0.258500,0,0.000000
2069,0.258625,0,0.000000
2070,0.258750,0,0.000000
2071,0.258875,0,0.000000
2072,0.259000,0,0.000000
2073,0.259125,0,0.000000
2074,0.259250,0,0.000000
2075,0.259375,0,0.000000
2076,0.259500,0,0.000000
2077,0.259625,0,0.000000
2078,0.259750,0,0.000000
2079,0.259875,0,0.000000
2080,0.260000,0,0.000000
2081,0.260125,0,0.000000
2082,0.260250,0,0.000000
2083,0.260375,0,0.000000
2084,0.260500,0,0.000000
2085,0.260625,0,0.000000
2086,0.260750,0,0.000000
2087,0.260875,0,0.000000
2088,0.261000,0,0.000000
2089,0.261125,0,0.000000
2090,0.261250,0,0.000000
2091,0.261375,0,0.000000
2092,0.261500,0,0.000000
2093,0.261625,0,0.000000
2094,0.261750,0,0.000000
2095,0.261875,0,0.000000
2096,0.262000,0,0.000000
2097,0.262125,0,0.000000
2098,0.262250,0,0.000000
2099,0.262375,0,0.000000
2100,0.262500,0,0.000000
2101,0.262625,0,0.000000
2102,0.262750,0,0.000000
2103,0.262875,0,0.000000
2104,0.263000,0,0.000000
2105,0.263125,0,0.000000
2106,0.263250,0,0.000000
2107,0.263375,0,0.000000
2108,0.263500,0,0.000000
2109,0.263625,0,0.000000
2110,0.263750,0,0.000000
2111,0.263875,0,0.000000
2112,0.264000,0,0.000000
2113,0.264125,0,0.000000
2114,0.264250,0,0.000000
2115,0.264375,0,0.000000
2116,0.264500,0,0.000000
2117,0.264625,0,0.000000
2118,0.264750,0,0.000000
2119,0.264875,0,0.000000
2120,0.265000,0,0.000000
2121,0.265125,0,0.000000
2122,0.265250,0,0.000000
2123,0.265375,0,0.000000
2124,0.265500,0,0.000000
2125,0.265625,0,0.000000
2126,0.265750,0,0.000000
2127,0.265875,0,0.000000
2128,0.266000,0,0.000000
2129,0.266125,0,0.000000
2130,0.266250,0,0.000000
2131,0.266375,0,0.000000
2132,0.266500,0,0.000000
2133,0.266625,0,0.000000
2134,0.266750,0,0.000000
2135,0.266875,0,0.000000
2136,0.267000,0,0.000000
2137,0.267125,0,0.000000
2138,0.267250,0,0.000000
2139,0.267375,0,0.000000
2140,0.267500,0,0.000000
2141,0.267625,0,0.000000
2142,0.267750,0,0.000000
2143,0.267875,0,0.000000
2144,0.268000,0,0.000000
2145,0.268125,0,0.000000
2146,0.268250,0,0.000000
2147,0.268375,0,0.000000
2148,0.268500,0,0.000000
2149,0.268625,0,0.000000
2150,0.268750,0,0.000000
2151,0.268875,0,0.000000
2152,0.269000,0,0.000000
2153,0.269125,0,0.000000
2154,0.269250,0,0.000000
2155,0.269375,0,0.000000
2156,0.269500,0,0.000000
2157,0.269625,0,0.000000
2158,0.269750,0,0.000000
2159,0.269875,0,0.000000
2160,0.270000,0,0.000000
2161,0.270125,0,0.000000
2162,0.270250,0,0.000000
2163,0.270375,0,0.000000
2164,0.270500,0,0.000000
2165,0.270625,0,0.000000
2166,0.270750,0,0.000000
2167,0.270875,0,0.000000
2168,0.271000,0,0.000000
2169,0.271125,0,0.000000
2170,0.271250,0,0.000000
2171,0.271375,0,0.000000
2172,0.271500,0,0.000000
2173,0.271625,0,0.000000
2174,0.271750,0,0.000000
2175,0.271875,0,0.000000
2176,0.272000,0,0.000000
2177,0.272125,0,0.000000
2178,0.272250,0,0.000000
2179,0.272375,0,0.000000
2180,0.272500,0,0.000000
2181,0.272625,0,0.000000
2182,0.272750,0,0.000000
2183,0.272875,0,0.000000
2184,0.273000,0,0.000000
2185,0.273125,0,0.000000
2186,0.273250,0,0.000000
2187,0.273375,0,0.000000
2188,0.273500,0,0.000000
2189,0.273625,0,0.000000
2190,0.273750,0,0.000000
2191,0.273875,0,0.000000
2192,0.274000,0,0.000000
2193,0.274125,0,0.000000
2194,0.274250,0,0.000000
2195,0.274375,0,0.000000
2196,0.274500,0,0.000000
2197,0.274625,0,0.000000
2198,0.274750,0,0.000000
2199,0.274875,0,0.000000
2200,0.275000,0,0.000000
2201,0.275125,0,0.000000
2202,0.275250,0,0.000000
2203,0.275375,0,0.000000
2204,0.275500,0,0.000000
2205,0.275625,0,0.000000
2206,0.275750,0,0.000000
2207,0.275875,0,0.000000
2208,0.276000,0,0.000000
2209,0.276125,0,0.000000
2210,0.276250,0,0.000000
2211,0.276375,0,0.000000
2212,0.276500,0,0.000000
2213,0.276625,0,0.000000
2214,0.276750,0,0.000000
2215,0.276875,0,0.000000
2216,0.277000,0,0.000000
2217,0.277125,0,0.000000
2218,0.277250,0,0.000000
2219,0.277375,0,0.000000
2220,0.277500,0,0.000000
2221,0.277625,0,0.000000
2222,0.277750,0,0.000000
2223,0.277875,0,0.000000
2224,0.278000,0,0.000000
2225,0.278125,0,0.000000
2226,0.278250,0,0.000000
2227,0.278375,0,0.000000
2228,0.278500,0,0.000000
2229,0.278625,0,0.000000
2230,0.278750,0,0.000000
2231,0.278875,0,0.000000
2232,0.279000,0,0.000000
2233,0.279125,0,0.000000
2234,0.279250,0,0.000000
2235,0.279375,0,0.000000
2236,0.279500,0,0.000000
2237,0.279625,0,0.000000
2238,0.279750,0,0.000000
2239,0.279875,0,0.000000
2240,0.280000,0,0.000000
2241,0.280125,0,0.000000
2242,0.280250,0,0.000000
2243,0.280375,0,0.000000
2244,0.280500,0,0.000000
2245,0.280625,0,0.000000
2246,0.280750,0,0.000000
2247,0.280875,0,0.000000
2248,0.281000,0,0.000000
2249,0.281125,0,0.000000
2250,0.281250,0,0.000000
2251,0.281375,0,0.000000
2252,0.281500,0,0.000000
2253,0.281625,0,0.000000
2254,0.281750,0,0.000000
2255,0.281875,0,0.000000
2256,0.282000,0,0.000000
2257,0.282125,0,0.000000
2258,0.282250,0,0.000000
2259,0.282375,0,0.000000
2260,0.282500,0,0.000000
2261,0.282625,0,0.000000
2262,0.282750,0,0.000000
2263,0.282875,0,0.000000
2264,0.283000,0,0.000000
2265,0.283125,0,0.000000
2266,0.283250,0,0.000000
2267,0.283375,0,0.000000
2268,0.283500,0,0.000000
2269,0.283625,0,0.000000
2270,0.283750,0,0.000000
2271,0.283875,0,0.000000
2272,0.284000,0,0.000000
2273,0.284125,0,0.000000
2274,0.284250,0,0.000000
2275,0.284375,0,0.000000
2276,0.284500,0,0.000000
2277,0.284625,0,0.000000
2278,0.284750,0,0.000000
2279,0.284875,0,0.000000
2280,0.285000,0,0.000000
2281,0.285125,0,0.000000
2282,0.285250,0,0.000000
2283,0.285375,0,0.000000
2284,0.285500,0,0.000000
2285,0.285625,0,0.000000
2286,0.285750,0,0.000000
2287,0.285875,0,0.000000
2288,0.286000,0,0.000000
2289,0.286125,0,0.000000
2290,0.286250,0,0.000000
2291,0.286375,0,0.000000
2292,0.286500,0,0.000000
2293,0.286625,0,0.000000
2294,0.286750,0,0.000000
2295,0.286875,0,0.000000
2296,0.287000,0,0.000000
2297,0.287125,0,0.000000
2298,0.287250,0,0.000000
2299,0.287375,0,0.000000
2300,0.287500,0,0.000000
2301,0.287625,0,0.000000
2302,0.287750,0,0.000000
2303,0.287875,0,0.000000
2304,0.288000,0,0.000000
2305,0.288125,0,0.000000
2306,0.288250,0,0.000000
2307,0.288375,0,0.000000
2308,0.288500,0,0.000000
2309,0.288625,0,0.000000
2310,0.288750,0,0.000000
2311,0.288875,0,0.000000
2312,0.289000,0,0.000000
2313,0.289125,0,0.000000
2314,0.289250,0,0.000000
2315,0.289375,0,0.000000
2316,0.289500,0,0.000000
2317,0.289625,0,0.000000
2318,0.289750,0,0.000000
2319,0.289875,0,0.000000
2320,0.290000,0,0.000000
2321,0.290125,0,0.000000
2322,0.290250,0,0.000000
2323,0.290375,0,0.000000
2324,0.290500,0,0.000000
2325,0.290625,0,0.000000
2326,0.290750,0,0.000000
2327,0.290875,0,0.000000
2328,0.291000,0,0.000000
2329,0.291125,0,0.000000
2330,0.291250,0,0.000000
2331,0.291375,0,0.000000
2332,0.291500,0,0.000000
2333,0.291625,0,0.000000
2334,0.291750,0,0.000000
2335,0.291875,0,0.000000
2336,0.292000,0,0.000000
2337,0.292125,0,0.000000
2338,0.292250,0,0.000000
2339,0.292375,0,0.000000
2340,0.292500,0,0.000000
2341,0.292625,0,0.000000
2342,0.292750,0,0.000000
2343,0.292875,0,0.000000
2344,0.293000,0,0.000000
2345,0.293125,0,0.000000
2346,0.293250,0,0.000000
2347,0.293375,0,0.000000
2348,0.293500,0,0.000000
2349,0.293625,0,0.000000
2350,0.293750,0,0.000000
2351,0.293875,0,0.000000
2352,0.294000,0,0.000000
2353,0.294125,0,0.000000
2354,0.294250,0,0.000000
2355,0.294375,0,0.000000
2356,0.294500,0,0.000000
2357,0.294625,0,0.000000
2358,0.294750,0,0.000000
2359,0.294875,0,0.000000
2360,0.295000,0,0.000000
2361,0.295125,0,0.000000
2362,0.295250,0,0.000000
2363,0.295375,0,0.000000
2364,0.295500,0,0.000000
2365,0.295625,0,0.000000
2366,0.295750,0,0.000000
2367,0.295875,0,0.000000
2368,0.296000,0,0.000000
2369,0.296125,0,0.000000
2370,0.296250,0,0.000000
2371,0.296375,0,0.000000
2372,0.296500,0,0.000000
2373,0.296625,0,0.000000
2374,0.296750,0,0.000000
2375,0.296875,0,0.000000
2376,0.297000,0,0.000000
2377,0.297125,0,0.000000
2378,0.297250,0,0.000000
2379,0.297375,0,0.000000
2380,0.297500,0,0.000000
2381,0.297625,0,0.000000
2382,0.297750,0,0.000000
2383,0.297875,0,0.000000
2384,0.298000,0,0.000000
2385,0.298125,0,0.000000
2386,0.298250,0,0.000000
2387,0.298375,0,0.000000
2388,0.298500,0,0.000000
2389,0.298625,0,0.000000
2390,0.298750,0,0.000000
2391,0.298875,0,0.000000
2392,0.299000,0,0.000000
2393,0.299125,0,0.000000
2394,0.299250,0,0.000000
2395,0.299375,0,0.000000
2396,0.299500,0,0.000000
2397,0.299625,0,0.000000
2398,0.299750,0,0.000000
2399,0.299875,0,0.000000
2400,0.300000,0,0.000000
2401,0.300125,0,0.000000
2402,0.300250,0,0.000000
2403,0.300375,0,0.000000
2404,0.300500,0,0.000000
2405,0.300625,0,0.000000
2406,0.300750,0,0.000000
2407,0.300875,0,0.000000
2408,0.301000,0,0.000000
2409,0.301125,0,0.000000
2410,0.301250,0,0.000000
2411,0.301375,0,0.000000
2412,0.301500,0,0.000000
2413,0.301625,0,0.000000
2414,0.301750,0,0.000000
2415,0.301875,0,0.000000
2416,0.302000,0,0.000000
2417,0.302125,0,0.000000
2418,0.302250,0,0.000000
2419,0.302375,0,0.000000
2420,0.302500,0,0.000000
2421,0.302625,0,0.000000
2422,0.302750,0,0.000000
2423,0.302875,0,0.000000
2424,0.303000,0,0.000000
2425,0.303125,0,0.000000
2426,0.303250,0,0.000000
2427,0.303375,0,0.000000
2428,0.303500,0,0.000000
2429,0.303625,0,0.000000
2430,0.303750,0,0.000000
2431,0.303875,0,0.000000
2432,0.304000,0,0.000000
2433,0.304125,0,0.000000
2434,0.304250,0,0.000000
2435,0.304375,0,0.000000
2436,0.304500,0,0.000000
2437,0.304625,0,0.000000
2438,0.304750,0,0.000000
2439,0.304875,0,0.000000
2440,0.305000,0,0.000000
2441,0.305125,0,0.000000
2442,0.305250,0,0.000000
2443,0.305375,0,0.000000
2444,0.305500,0,0.000000
2445,0.305625,0,0.000000
2446,0.305750,0,0.000000
2447,0.305875,0,0.000000
2448,0.306000,0,0.000000
2449,0.306125,0,0.000000
2450,0.306250,0,0.000000
2451,0.306375,0,0.000000
2452,0.306500,0,0.000000
2453,0.306625,0,0.000000
2454,0.306750,0,0.000000
2455,0.306875,0,0.000000
2456,0.307000,0,0.000000
2457,0.307125,0,0.000000
2458,0.307250,0,0.000000
2459,0.307375,0,0.000000
2460,0.307500,0,0.000000
2461,0.307625,0,0.000000
2462,0.307750,0,0.000000
2463,0.307875,0,0.000000
2464,0.308000,0,0.000000
2465,0.308125,0,0.000000
2466,0.308250,0,0.000000
2467,0.308375,0,0.000000
2468,0.308500,0,0.000000
2469,0.308625,0,0.000000
2470,0.308750,0,0.000000
2471,0.308875,0,0.000000
2472,0.309000,0,0.000000
2473,0.309125,0,0.000000
2474,0.309250,0,0.000000
2475,0.309375,0,0.000000
2476,0.309500,0,0.000000
2477,0.309625,0,0.000000
2478,0.309750,0,0.000000
2479,0.309875,0,0.000000
2480,0.310000,0,0.000000
2481,0.310125,0,0.000000
2482,0.310250,0,0.000000
2483,0.310375,0,0.000000
2484,0.310500,0,0.000000
2485,0.310625,0,0.000000
2486,0.310750,0,0.000000
2487,0.310875,0,0.000000
2488,0.311000,0,0.000000
2489,0.311125,0,0.000000
2490,0.311250,0,0.000000
2491,0.311375,0,0.000000
2492,0.311500,0,0.000000
2493,0.311625,0,0.000000
2494,0.311750,0,0.000000
2495,0.311875,0,0.000000
2496,0.312000,0,0.000000
2497,0.312125,0,0.000000
2498,0.312250,0,0.000000
2499,0.312375,0,0.000000
2500,0.312500,0,0.000000
2501,0.312625,0,0.000000
2502,0.312750,0,0.000000
2503,0.312875,0,0.000000
2504,0.313000,0,0.000000
2505,0.313125,0,0.000000
2506,0.313250,0,0.000000
2507,0.313375,0,0.000000
2508,0.313500,0,0.000000
2509,0.313625,0,0.000000
2510,0.313750,0,0.000000
2511,0.313875,0,0.000000
2512,0.314000,0,0.000000
2513,0.314125,0,0.000000
2514,0.314250,0,0.000000
2515,0.314375,0,0.000000
2516,0.314500,0,0.000000
2517,0.314625,0,0.000000
2518,0.314750,0,0.000000
2519,0.314875,0,0.000000
2520,0.315000,0,0.000000
2521,0.315125,0,0.000000
2522,0.315250,0,0.000000
2523,0.315375,0,0.000000
2524,0.315500,0,0.000000
2525,0.315625,0,0.000000
2526,0.315750,0,0.000000
2527,0.315875,0,0.000000
2528,0.316000,0,0.000000
2529,0.316125,0,0.000000
2530,0.316250,0,0.000000
2531,0.316375,0,0.000000
2532,0.316500,0,0.000000
2533,0.316625,0,0.000000
2534,0.316750,0,0.000000
2535,0.316875,0,0.000000
2536,0.317000,0,0.000000
2537,0.317125,0,0.000000
2538,0.317250,0,0.000000
2539,0.317375,0,0.000000
2540,0.317500,0,0.000000
2541,0.317625,0,0.000000
2542,0.317750,0,0.000000
2543,0.317875,0,0.000000
2544,0.318000,0,0.000000
2545,0.318125,0,0.000000
2546,0.318250,0,0.000000
2547,0.318375,0,0.000000
2548,0.318500,0,0.000000
2549,0.318625,0,0.000000
2550,0.318750,0,0.000000
2551,0.318875,0,0.000000
2552,0.319000,0,0.000000
2553,0.319125,0,0.000000
2554,0.319250,0,0.000000
2555,0.319375,0,0.000000
2556,0.319500,0,0.000000
2557,0.319625,0,0.000000
2558,0.319750,0,0.000000
2559,0.319875,0,0.000000
2560,0.320000,0,0.000000
2561,0.320125,0,0.000000
2562,0.320250,0,0.000000
2563,0.320375,0,0.000000
2564,0.320500,0,0.000000
2565,0.320625,0,0.000000
2566,0.320750,0,0.000000
2567,0.320875,0,0.000000
2568,0.321000,0,0.000000
2569,0.321125,0,0.000000
2570,0.321250,0,0.000000
2571,0.321375,0,0.000000
2572,0.321500,0,0.000000
2573,0.321625,0,0.000000
2574,0.321750,0,0.000000
2575,0.321875,0,0.000000
2576,0.322000,0,0.000000
2577,0.322125,0,0.000000
2578,0.322250,0,0.000000
2579,0.322375,0,0.000000
2580,0.322500,0,0.000000
2581,0.322625,0,0.000000
2582,0.322750,0,0.000000
2583,0.322875,0,0.000000
2584,0.323000,0,0.000000
2585,0.323125,0,0.000000
2586,0.323250,0,0.000000
2587,0.323375,0,0.000000
2588,0.323500,0,0.000000
2589,0.323625,0,0.000000
2590,0.323750,0,0.000000
2591,0.323875,0,0.000000
2592,0.324000,0,0.000000
2593,0.324125,0,0.000000
2594,0.324250,0,0.000000
2595,0.324375,0,0.000000
2596,0.324500,0,0.000000
2597,0.324625,0,0.000000
2598,0.324750,0,0.000000
2599,0.324875,0,0.000000
2600,0.325000,0,0.000000
2601,0.325125,0,0.000000
2602,0.325250,0,0.000000
2603,0.325375,0,0.000000
2604,0.325500,0,0.000000
2605,0.325625,0,0.000000
2606,0.325750,0,0.000000
2607,0.325875,0,0.000000
2608,0.326000,0,0.000000
2609,0.326125,0,0.000000
2610,0.326250,0,0.000000
2611,0.326375,0,0.000000
2612,0.326500,0,0.000000
2613,0.326625,0,0.000000
2614,0.326750,0,0.000000
2615,0.326875,0,0.000000
2616,0.327000,0,0.000000
2617,0.327125,0,0.000000
2618,0.327250,0,0.000000
2619,0.327375,0,0.000000
2620,0.327500,0,0.000000
2621,0.327625,0,0.000000
2622,0.327750,0,0.000000
2623,0.327875,0,0.000000
2624,0.328000,0,0.000000
2625,0.328125,0,0.000000
2626,0.328250,0,0.000000
2627,0.328375,0,0.000000
2628,0.328500,0,0.000000
2629,0.328625,0,0.000000
2630,0.328750,0,0.000000
2631,0.328875,0,0.000000
2632,0.329000,0,0.000000
2633,0.329125,0,0.000000
2634,0.329250,0,0.000000
2635,0.329375,0,0.000000
2636,0.329500,0,0.000000
2637,0.329625,0,0.000000
2638,0.329750,0,0.000000
2639,0.329875,0,0.000000
2640,0.330000,0,0.000000
2641,0.330125,0,0.000000
2642,0.330250,0,0.000000
2643,0.330375,0,0.000000
2644,0.330500,0,0.000000
2645,0.330625,0,0.000000
2646,0.330750,0,0.000000
2647,0.330875,0,0.000000
2648,0.331000,0,0.000000
2649,0.331125,0,0.000000
2650,0.331250,0,0.000000
2651,0.331375,0,0.000000
2652,0.331500,0,0.000000
2653,0.331625,0,0.000000
2654,0.331750,0,0.000000
2655,0.331875,0,0.000000
2656,0.332000,0,0.000000
2657,0.332125,0,0.000000
2658,0.332250,0,0.000000
2659,0.332375,0,0.000000
2660,0.332500,0,0.000000
2661,0.332625,0,0.000000
2662,0.332750,0,0.000000
2663,0.332875,0,0.000000
2664,0.333000,0,0.000000
2665,0.333125,0,0.000000
2666,0.333250,0,0.000000
2667,0.333375,0,0.000000
2668,0.333500,0,0.000000
2669,0.333625,0,0.000000
2670,0.333750,0,0.000000
2671,0.333875,0,0.000000
2672,0.334000,0,0.000000
2673,0.334125,0,0.000000
2674,0.334250,0,0.000000
2675,0.334375,0,0.000000
2676,0.334500,0,0.000000
2677,0.334625,0,0.000000
2678,0.334750,0,0.000000
2679,0.334875,0,0.000000
2680,0.335000,0,0.000000
2681,0.335125,0,0.000000
2682,0.335250,0,0.000000
2683,0.335375,0,0.000000
2684,0.335500,0,0.000000
2685,0.335625,0,0.000000
2686,0.335750,0,0.000000
2687,0.335875,0,0.000000
2688,0.336000,0,0.000000
2689,0.336125,0,0.000000
2690,0.336250,0,0.000000
2691,0.336375,0,0.000000
2692,0.336500,0,0.000000
2693,0.336625,0,0.000000
2694,0.336750,0,0.000000
2695,0.336875,0,0.000000
2696,0.337000,0,0.000000
2697,0.337125,0,0.000000
2698,0.337250,0,0.000000
2699,0.337375,0,0.000000
2700,0.337500,0,0.000000
2701,0.337625,0,0.000000
2702,0.337750,0,0.000000
2703,0.337875,0,0.000000
2704,0.338000,0,0.000000
2705,0.338125,0,0.000000
2706,0.338250,0,0.000000
2707,0.338375,0,0.000000
2708,0.338500,0,0.000000
2709,0.338625,0,0.000000
2710,0.338750,0,0.000000
2711,0.338875,0,0.000000
2712,0.339000,0,0.000000
2713,0.339125,0,0.000000
2714,0.339250,0,0.000000
2715,0.339375,0,0.000000
2716,0.339500,0,0.000000
2717,0.339625,0,0.000000
2718,0.339750,0,0.000000
2719,0.339875,0,0.000000
2720,0.340000,0,0.000000
2721,0.340125,0,0.000000
2722,0.340250,0,0.000000
2723,0.340375,0,0.000000
2724,0.340500,0,0.000000
2725,0.340625,0,0.000000
2726,0.340750,0,0.000000
2727,0.340875,0,0.000000
2728,0.341000,0,0.000000
2729,0.341125,0,0.000000
2730,0.341250,0,0.000000
2731,0.341375,0,0.000000
2732,0.341500,0,0.000000
2733,0.341625,0,0.000000
2734,0.341750,0,0.000000
2735,0.341875,0,0.000000
2736,0.342000,0,0.000000
2737,0.342125,0,0.000000
2738,0.342250,0,0.000000
2739,0.342375,0,0.000000
2740,0.342500,0,0.000000
2741,0.342625,0,0.000000
2742,0.342750,0,0.000000
2743,0.342875,0,0.000000
2744,0.343000,0,0.000000
2745,0.343125,0,0.000000
2746,0.343250,0,0.000000
2747,0.343375,0,0.000000
2748,0.343500,0,0.000000
2749,0.343625,0,0.000000
2750,0.343750,0,0.000000
2751,0.343875,0,0.000000
2752,0.344000,0,0.000000
2753,0.344125,0,0.000000
2754,0.344250,0,0.000000
2755,0.344375,0,0.000000
2756,0.344500,0,0.000000
2757,0.344625,0,0.000000
2758,0.344750,0,0.000000
2759,0.344875,0,0.000000
2760,0.345000,0,0.000000
2761,0.345125,0,0.000000
2762,0.345250,0,0.000000
2763,0.345375,0,0.000000
2764,0.345500,0,0.000000
2765,0.345625,0,0.000000
2766,0.345750,0,0.000000
2767,0.345875,0,0.000000
2768,0.346000,0,0.000000
2769,0.346125,0,0.000000
2770,0.346250,0,0.000000
2771,0.346375,0,0.000000
2772,0.346500,0,0.000000
2773,0.346625,0,0.000000
2774,0.346750,0,0.000000
2775,0.346875,0,0.000000
2776,0.347000,0,0.000000
2777,0.347125,0,0.000000
2778,0.347250,0,0.000000
2779,0.347375,0,0.000000
2780,0.347500,0,0.000000
2781,0.347625,0,0.000000
2782,0.347750,0,0.000000
2783,0.347875,0,0.000000
2784,0.348000,0,0.000000
2785,0.348125,0,0.000000
2786,0.348250,0,0.000000
2787,0.348375,0,0.000000
2788,0.348500,0,0.000000
2789,0.348625,0,0.000000
2790,0.348750,0,0.000000
2791,0.348875,0,0.000000
2792,0.349000,0,0.000000
2793,0.349125,0,0.000000
2794,0.349250,0,0.000000
2795,0.349375,0,0.000000
2796,0.349500,0,0.000000
2797,0.349625,0,0.000000
2798,0.349750,0,0.000000
2799,0.349875,0,0.000000
2800,0.350000,0,0.000000
2801,0.350125,0,0.000000
2802,0.350250,0,0.000000
2803,0.350375,0,0.000000
2804,0.350500,0,0.000000
2805,0.350625,0,0.000000
2806,0.350750,0,0.000000
2807,0.350875,0,0.000000
2808,0.351000,0,0.000000
2809,0.351125,0,0.000000
2810,0.351250,0,0.000000
2811,0.351375,0,0.000000
2812,0.351500,0,0.000000
2813,0.351625,0,0.000000
2814,0.351750,0,0.000000
2815,0.351875,0,0.000000
2816,0.352000,0,0.000000
2817,0.352125,0,0.000000
2818,0.352250,0,0.000000
2819,0.352375,0,0.000000
2820,0.352500,0,0.000000
2821,0.352625,0,0.000000
2822,0.352750,0,0.000000
2823,0.352875,0,0.000000
2824,0.353000,0,0.000000
2825,0.353125,0,0.000000
2826,0.353250,0,0.000000
2827,0.353375,0,0.000000
2828,0.353500,0,0.000000
2829,0.353625,0,0.000000
2830,0.353750,0,0.000000
2831,0.353875,0,0.000000
2832,0.354000,0,0.000000
2833,0.354125,0,0.000000
2834,0.354250,0,0.000000
2835,0.354375,0,0.000000
2836,0.354500,0,0.000000
2837,0.354625,0,0.000000
2838,0.354750,0,0.000000
2839,0.354875,0,0.000000
2840,0.355000,0,0.000000
2841,0.355125,0,0.000000
2842,0.355250,0,0.000000
2843,0.355375,0,0.000000
2844,0.355500,0,0.000000
2845,0.355625,0,0.000000
2846,0.355750,0,0.000000
2847,0.355875,0,0.000000
2848,0.356000,0,0.000000
2849,0.356125,0,0.000000
2850,0.356250,0,0.000000
2851,0.356375,0,0.000000
2852,0.356500,0,0.000000
2853,0.356625,0,0.000000
2854,0.356750,0,0.000000
2855,0.356875,0,0.000000
2856,0.357000,0,0.000000
2857,0.357125,0,0.000000
2858,0.357250,0,0.000000
2859,0.357375,0,0.000000
2860,0.357500,0,0.000000
2861,0.357625,0,0.000000
2862,0.357750,0,0.000000
2863,0.357875,0,0.000000
2864,0.358000,0,0.000000
2865,0.358125,0,0.000000
2866,0.358250,0,0.000000
2867,0.358375,0,0.000000
2868,0.358500,0,0.000000
2869,0.358625,0,0.000000
2870,0.358750,0,0.000000
2871,0.358875,0,0.000000
2872,0.359000,0,0.000000
2873,0.359125,0,0.000000
2874,0.359250,0,0.000000
2875,0.359375,0,0.000000
2876,0.359500,0,0.000000
2877,0.359625,0,0.000000
2878,0.359750,0,0.000000
2879,0.359875,0,0.000000
2880,0.360000,0,0.000000
2881,0.360125,0,0.000000
2882,0.360250,0,0.000000
2883,0.360375,0,0.000000
2884,0.360500,0,0.000000
2885,0.360625,0,0.000000
2886,0.360750,0,0.000000
2887,0.360875,0,0.000000
2888,0.361000,0,0.000000
2889,0.361125,0,0.000000
2890,0.361250,0,0.000000
2891,0.361375,0,0.000000
2892,0.361500,0,0.000000
2893,0.361625,0,0.000000
2894,0.361750,0,0.000000
2895,0.361875,0,0.000000
2896,0.362000,0,0.000000
2897,0.362125,0,0.000000
2898,0.362250,0,0.000000
2899,0.362375,0,0.000000
2900,0.362500,0,0.000000
2901,0.362625,0,0.000000
2902,0.362750,0,0.000000
2903,0.362875,0,0.000000
2904,0.363000,0,0.000000
2905,0.363125,0,0.000000
2906,0.363250,0,0.000000
2907,0.363375,0,0.000000
2908,0.363500,0,0.000000
2909,0.363625,0,0.000000
2910,0.363750,0,0.000000
2911,0.363875,0,0.000000
2912,0.364000,0,0.000000
2913,0.364125,0,0.000000
2914,0.364250,0,0.000000
2915,0.364375,0,0.000000
2916,0.364500,0,0.000000
2917,0.364625,0,0.000000
2918,0.364750,0,0.000000
2919,0.364875,0,0.000000
2920,0.365000,0,0.000000
2921,0.365125,0,0.000000
2922,0.365250,0,0.000000
2923,0.365375,0,0.000000
2924,0.365500,0,0.000000
2925,0.365625,0,0.000000
2926,0.365750,0,0.000000
2927,0.365875,0,0.000000
2928,0.366000,0,0.000000
2929,0.366125,0,0.000000
2930,0.366250,0,0.000000
2931,0.366375,0,0.000000
2932,0.366500,0,0.000000
2933,0.366625,0,0.000000
2934,0.366750,0,0.000000
2935,0.366875,0,0.000000
2936,0.367000,0,0.000000
2937,0.367125,0,0.000000
2938,0.367250,0,0.000000
2939,0.367375,0,0.000000
2940,0.367500,0,0.000000
2941,0.367625,0,0.000000
2942,0.367750,0,0.000000
2943,0.367875,0,0.000000
2944,0.368000,0,0.000000
2945,0.368125,0,0.000000
2946,0.368250,0,0.000000
2947,0.368375,0,0.000000
2948,0.368500,0,0.000000
2949,0.368625,0,0.000000
2950,0.368750,0,0.000000
2951,0.368875,0,0.000000
2952,0.369000,0,0.000000
2953,0.369125,0,0.000000
2954,0.369250,0,0.000000
2955,0.369375,0,0.000000
2956,0.369500,0,0.000000
2957,0.369625,0,0.000000
2958,0.369750,0,0.000000
2959,0.369875,0,0.000000
2960,0.370000,0,0.000000
2961,0.370125,0,0.000000
2962,0.370250,0,0.000000
2963,0.370375,0,0.000000
2964,0.370500,0,0.000000
2965,0.370625,0,0.000000
2966,0.370750,0,0.000000
2967,0.370875,0,0.000000
2968,0.371000,0,0.000000
2969,0.371125,0,0.000000
2970,0.371250,0,0.000000
2971,0.371375,0,0.000000
2972,0.371500,0,0.000000
2973,0.371625,0,0.000000
2974,0.371750,0,0.000000
2975,0.371875,0,0.000000
2976,0.372000,0,0.000000
2977,0.372125,0,0.000000
2978,0.372250,0,0.000000
2979,0.372375,0,0.000000
2980,0.372500,0,0.000000
2981,0.372625,0,0.000000
2982,0.372750,0,0.000000
2983,0.372875,0,0.000000
2984,0.373000,0,0.000000
2985,0.373125,0,0.000000
2986,0.373250,0,0.000000
2987,0.373375,0,0.000000
2988,0.373500,0,0.000000
2989,0.373625,0,0.000000
2990,0.373750,0,0.000000
2991,0.373875,0,0.000000
2992,0.374000,0,0.000000
2993,0.374125,0,0.000000
2994,0.374250,0,0.000000
2995,0.374375,0,0.000000
2996,0.374500,0,0.000000
2997,0.374625,0,0.000000
2998,0.374750,0,0.000000
2999,0.374875,0,0.000000
3000,0.375000,0,0.000000
3001,0.375125,0,0.000000
3002,0.375250,0,0.000000
3003,0.375375,0,0.000000
3004,0.375500,0,0.000000
3005,0.375625,0,0.000000
3006,0.375750,0,0.000000
3007,0.375875,0,0.000000
3008,0.376000,0,0.000000
3009,0.376125,0,0.000000
3010,0.376250,0,0.000000
3011,0.376375,0,0.000000
3012,0.376500,0,0.000000
3013,0.376625,0,0.000000
3014,0.376750,0,0.000000
3015,0.376875,0,0.000000
3016,0.377000,0,0.000000
3017,0.377125,0,0.000000
3018,0.377250,0,0.000000
3019,0.377375,0,0.000000
3020,0.377500,0,0.000000
3021,0.377625,0,0.000000
3022,0.377750,0,0.000000
3023,0.377875,0,0.000000
3024,0.378000,0,0.000000
3025,0.378125,0,0.000000
3026,0.378250,0,0.000000
3027,0.378375,0,0.000000
3028,0.378500,0,0.000000
3029,0.378625,0,0.000000
3030,0.378750,0,0.000000
3031,0.378875,0,0.000000
3032,0.379000,0,0.000000
3033,0.379125,0,0.000000
3034,0.379250,0,0.000000
3035,0.379375,0,0.000000
3036,0.379500,0,0.000000
3037,0.379625,0,0.000000
3038,0.379750,0,0.000000
3039,0.379875,0,0.000000
3040,0.380000,0,0.000000
3041,0.380125,0,0.000000
3042,0.380250,0,0.000000
3043,0.380375,0,0.000000
3044,0.380500,0,0.000000
3045,0.380625,0,0.000000
3046,0.380750,0,0.000000
3047,0.380875,0,0.000000
3048,0.381000,0,0.000000
3049,0.381125,0,0.000000
3050,0.381250,0,0.000000
3051,0.381375,0,0.000000
3052,0.381500,0,0.000000
3053,0.381625,0,0.000000
3054,0.381750,0,0.000000
3055,0.381875,0,0.000000
3056,0.382000,0,0.000000
3057,0.382125,0,0.000000
3058,0.382250,0,0.000000
3059,0.382375,0,0.000000
3060,0.382500,0,0.000000
3061,0.382625,0,0.000000
3062,0.382750,0,0.000000
3063,0.382875,0,0.000000
3064,0.383000,0,0.000000
3065,0.383125,0,0.000000
3066,0.383250,0,0.000000
3067,0.383375,0,0.000000
3068,0.383500,0,0.000000
3069,0.383625,0,0.000000
3070,0.383750,0,0.000000
3071,0.383875,0,0.000000
3072,0.384000,0,0.000000
3073,0.384125,0,0.000000
3074,0.384250,0,0.000000
3075,0.384375,0,0.000000
3076,0.384500,0,0.000000
3077,0.384625,0,0.000000
3078,0.384750,0,0.000000
3079,0.384875,0,0.000000
3080,0.385000,0,0.000000
3081,0.385125,0,0.000000
3082,0.385250,0,0.000000
3083,0.385375,0,0.000000
3084,0.385500,0,0.000000
3085,0.385625,0,0.000000
3086,0.385750,0,0.000000
3087,0.385875,0,0.000000
3088,0.386000,0,0.000000
3089,0.386125,0,0.000000
3090,0.386250,0,0.000000
3091,0.386375,0,0.000000
3092,0.386500,0,0.000000
3093,0.386625,0,0.000000
3094,0.386750,0,0.000000
3095,0.386875,0,0.000000
3096,0.387000,0,0.000000
3097,0.387125,0,0.000000
3098,0.387250,0,0.000000
3099,0.387375,0,0.000000
3100,0.387500,0,0.000000
3101,0.387625,0,0.000000
3102,0.387750,0,0.000000
3103,0.387875,0,0.000000
3104,0.388000,0,0.000000
3105,0.388125,0,0.000000
3106,0.388250,0,0.000000
3107,0.388375,0,0.000000
3108,0.388500,0,0.000000
3109,0.388625,0,0.000000
3110,0.388750,0,0.000000
3111,0.388875,0,0.000000
3112,0.389000,0,0.000000
3113,0.389125,0,0.000000
3114,0.389250,0,0.000000
3115,0.389375,0,0.000000
3116,0.389500,0,0.000000
3117,0.389625,0,0.000000
3118,0.389750,0,0.000000
3119,0.389875,0,0.000000
3120,0.390000,0,0.000000
3121,0.390125,0,0.000000
3122,0.390250,0,0.000000
3123,0.390375,0,0.000000
3124,0.390500,0,0.000000
3125,0.390625,0,0.000000
3126,0.390750,0,0.000000
3127,0.390875,0,0.000000
3128,0.391000,0,0.000000
3129,0.391125,0,0.000000
3130,0.391250,0,0.000000
3131,0.391375,0,0.000000
3132,0.391500,0,0.000000
3133,0.391625,0,0.000000
3134,0.391750,0,0.000000
3135,0.391875,0,0.000000
3136,0.392000,0,0.000000
3137,0.392125,0,0.000000
3138,0.392250,0,0.000000
3139,0.392375,0,0.000000
3140,0.392500,0,0.000000
3141,0.392625,0,0.000000
3142,0.392750,0,0.000000
3143,0.392875,0,0.000000
3144,0.393000,0,0.000000
3145,0.393125,0,0.000000
3146,0.393250,0,0.000000
3147,0.393375,0,0.000000
3148,0.393500,0,0.000000
3149,0.393625,0,0.000000
3150,0.393750,0,0.000000
3151,0.393875,0,0.000000
3152,0.394000,0,0.000000
3153,0.394125,0,0.000000
3154,0.394250,0,0.000000
3155,0.394375,0,0.000000
3156,0.394500,0,0.000000
3157,0.394625,0,0.000000
3158,0.394750,0,0.000000
3159,0.394875,0,0.000000
3160,0.395000,0,0.000000
3161,0.395125,0,0.000000
3162,0.395250,0,0.000000
3163,0.395375,0,0.000000
3164,0.395500,0,0.000000
3165,0.395625,0,0.000000
3166,0.395750,0,0.000000
3167,0.395875,0,0.000000
3168,0.396000,0,0.000000
3169,0.396125,0,0.000000
3170,0.396250,0,0.000000
3171,0.396375,0,0.000000
3172,0.396500,0,0.000000
3173,0.396625,0,0.000000
3174,0.396750,0,0.000000
3175,0.396875,0,0.000000
3176,0.397000,0,0.000000
3177,0.397125,0,0.000000
3178,0.397250,0,0.000000
3179,0.397375,0,0.000000
3180,0.397500,0,0.000000
3181,0.397625,0,0.000000
3182,0.397750,0,0.000000
3183,0.397875,0,0.000000
3184,0.398000,0,0.000000
3185,0.398125,0,0.000000
3186,0.398250,0,0.000000
3187,0.398375,0,0.000000
3188,0.398500,0,0.000000
3189,0.398625,0,0.000000
3190,0.398750,0,0.000000
3191,0.398875,0,0.000000
3192,0.399000,0,0.000000
3193,0.399125,0,0.000000
3194,0.399250,0,0.000000
3195,0.399375,0,0.000000
3196,0.399500,0,0.000000
3197,0.399625,0,0.000000
3198,0.399750,0,0.000000
3199,0.399875,0,0.000000
3200,0.400000,0,0.000000
3201,0.400125,0,0.000000
3202,0.400250,0,0.000000
3203,0.400375,0,0.000000
3204,0.400500,0,0.000000
3205,0.400625,0,0.000000
3206,0.400750,0,0.000000
3207,0.400875,0,0.000000
3208,0.401000,0,0.000000
3209,0.401125,0,0.000000
3210,0.401250,0,0.000000
3211,0.401375,0,0.000000
3212,0.401500,0,0.000000
3213,0.401625,0,0.000000
3214,0.401750,0,0.000000
3215,0.401875,0,0.000000
3216,0.402000,0,0.000000
3217,0.402125,0,0.000000
3218,0.402250,0,0.000000
3219,0.402375,0,0.000000
3220,0.402500,0,0.000000
3221,0.402625,0,0.000000
3222,0.402750,0,0.000000
3223,0.402875,0,0.000000
3224,0.403000,0,0.000000
3225,0.403125,0,0.000000
3226,0.403250,0,0.000000
3227,0.403375,0,0.000000
3228,0.403500,0,0.000000
3229,0.403625,0,0.000000
3230,0.403750,0,0.000000
3231,0.403875,0,0.000000
3232,0.404000,0,0.000000
3233,0.404125,0,0.000000
3234,0.404250,0,0.000000
3235,0.404375,0,0.000000
3236,0.404500,0,0.000000
3237,0.404625,0,0.000000
3238,0.404750,0,0.000000
3239,0.404875,0,0.000000
3240,0.405000,0,0.000000
3241,0.405125,0,0.000000
3242,0.405250,0,0.000000
3243,0.405375,0,0.000000
3244,0.405500,0,0.000000
3245,0.405625,0,0.000000
3246,0.405750,0,0.000000
3247,0.405875,0,0.000000
3248,0.406000,0,0.000000
3249,0.406125,0,0.000000
3250,0.406250,0,0.000000
3251,0.406375,0,0.000000
3252,0.406500,0,0.000000
3253,0.406625,0,0.000000
3254,0.406750,0,0.000000
3255,0.406875,0,0.000000
3256,0.407000,0,0.000000
3257,0.407125,0,0.000000
3258,0.407250,0,0.000000
3259,0.407375,0,0.000000
3260,0.407500,0,0.000000
3261,0.407625,0,0.000000
3262,0.407750,0,0.000000
3263,0.407875,0,0.000000
3264,0.408000,0,0.000000
3265,0.408125,0,0.000000
3266,0.408250,0,0.000000
3267,0.408375,0,0.000000
3268,0.408500,0,0.000000
3269,0.408625,0,0.000000
3270,0.408750,0,0.000000
3271,0.408875,0,0.000000
3272,0.409000,0,0.000000
3273,0.409125,0,0.000000
3274,0.409250,0,0.000000
3275,0.409375,0,0.000000
3276,0.409500,0,0.000000
3277,0.409625,0,0.000000
3278,0.409750,0,0.000000
3279,0.409875,0,0.000000
3280,0.410000,0,0.000000
3281,0.410125,0,0.000000
3282,0.410250,0,0.000000
3283,0.410375,0,0.000000
3284,0.410500,0,0.000000
3285,0.410625,0,0.000000
3286,0.410750,0,0.000000
3287,0.410875,0,0.000000
3288,0.411000,0,0.000000
3289,0.411125,0,0.000000
3290,0.411250,0,0.000000
3291,0.411375,0,0.000000
3292,0.411500,0,0.000000
3293,0.411625,0,0.000000
3294,0.411750,0,0.000000
3295,0.411875,0,0.000000
3296,0.412000,0,0.000000
3297,0.412125,0,0.000000
3298,0.412250,0,0.000000
3299,0.412375,0,0.000000
3300,0.412500,0,0.000000
3301,0.412625,0,0.000000
3302,0.412750,0,0.000000
3303,0.412875,0,0.000000
3304,0.413000,0,0.000000
3305,0.413125,0,0.000000
3306,0.413250,0,0.000000
3307,0.413375,0,0.000000
3308,0.413500,0,0.000000
3309,0.413625,0,0.000000
3310,0.413750,0,0.000000
3311,0.413875,0,0.000000
3312,0.414000,0,0.000000
3313,0.414125,0,0.000000
3314,0.414250,0,0.000000
3315,0.414375,0,0.000000
3316,0.414500,0,0.000000
3317,0.414625,0,0.000000
3318,0.414750,0,0.000000
3319,0.414875,0,0.000000
3320,0.415000,0,0.000000
3321,0.415125,0,0.000000
3322,0.415250,0,0.000000
3323,0.415375,0,0.000000
3324,0.415500,0,0.000000
3325,0.415625,0,0.000000
3326,0.415750,0,0.000000
3327,0.415875,0,0.000000
3328,0.416000,0,0.000000
3329,0.416125,0,0.000000
3330,0.416250,0,0.000000
3331,0.416375,0,0.000000
3332,0.416500,0,0.000000
3333,0.416625,0,0.000000
3334,0.416750,0,0.000000
3335,0.416875,0,0.000000
3336,0.417000,0,0.000000
3337,0.417125,0,0.000000
3338,0.417250,0,0.000000
3339,0.417375,0,0.000000
3340,0.417500,0,0.000000
3341,0.417625,0,0.000000
3342,0.417750,0,0.000000
3343,0.417875,0,0.000000
3344,0.418000,0,0.000000
3345,0.418125,0,0.000000
3346,0.418250,0,0.000000
3347,0.418375,0,0.000000
3348,0.418500,0,0.000000
3349,0.418625,0,0.000000
3350,0.418750,0,0.000000
3351,0.418875,0,0.000000
3352,0.419000,0,0.000000
3353,0.419125,0,0.000000
3354,0.419250,0,0.000000
3355,0.419375,0,0.000000
3356,0.419500,0,0.000000
3357,0.419625,0,0.000000
3358,0.419750,0,0.000000
3359,0.419875,0,0.000000
3360,0.420000,0,0.000000
3361,0.420125,0,0.000000
3362,0.420250,0,0.000000
3363,0.420375,0,0.000000
3364,0.420500,0,0.000000
3365,0.420625,0,0.000000
3366,0.420750,0,0.000000
3367,0.420875,0,0.000000
3368,0.421000,0,0.000000
3369,0.421125,0,0.000000
3370,0.421250,0,0.000000
3371,0.421375,0,0.000000
3372,0.421500,0,0.000000
3373,0.421625,0,0.000000
3374,0.421750,0,0.000000
3375,0.421875,0,0.000000
3376,0.422000,0,0.000000
3377,0.422125,0,0.000000
3378,0.422250,0,0.000000
3379,0.422375,0,0.000000
3380,0.422500,0,0.000000
3381,0.422625,0,0.000000
3382,0.422750,0,0.000000
3383,0.422875,0,0.000000
3384,0.423000,0,0.000000
3385,0.423125,0,0.000000
3386,0.423250,0,0.000000
3387,0.423375,0,0.000000
3388,0.423500,0,0.000000
3389,0.423625,0,0.000000
3390,0.423750,0,0.000000
3391,0.423875,0,0.000000
3392,0.424000,0,0.000000
3393,0.424125,0,0.000000
3394,0.424250,0,0.000000
3395,0.424375,0,0.000000
3396,0.424500,0,0.000000
3397,0.424625,0,0.000000
3398,0.424750,0,0.000000
3399,0.424875,0,0.000000
3400,0.425000,0,0.000000
3401,0.425125,0,0.000000
3402,0.425250,0,0.000000
3403,0.425375,0,0.000000
3404,0.425500,0,0.000000
3405,0.425625,0,0.000000
3406,0.425750,0,0.000000
3407,0.425875,0,0.000000
3408,0.426000,0,0.000000
3409,0.426125,0,0.000000
3410,0.426250,0,0.000000
3411,0.426375,0,0.000000
3412,0.426500,0,0.000000
3413,0.426625,0,0.000000
3414,0.426750,0,0.000000
3415,0.426875,0,0.000000
3416,0.427000,0,0.000000
3417,0.427125,0,0.000000
3418,0.427250,0,0.000000
3419,0.427375,0,0.000000
3420,0.427500,0,0.000000
3421,0.427625,0,0.000000
3422,0.427750,0,0.000000
3423,0.427875,0,0.000000
3424,0.428000,0,0.000000
3425,0.428125,0,0.000000
3426,0.428250,0,0.000000
3427,0.428375,0,0.000000
3428,0.428500,0,0.000000
3429,0.428625,0,0.000000
3430,0.428750,0,0.000000
3431,0.428875,0,0.000000
3432,0.429000,0,0.000000
3433,0.429125,0,0.000000
3434,0.429250,0,0.000000
3435,0.429375,0,0.000000
3436,0.429500,0,0.000000
3437,0.429625,0,0.000000
3438,0.429750,0,0.000000
3439,0.429875,0,0.000000
3440,0.430000,0,0.000000
3441,0.430125,0,0.000000
3442,0.430250,0,0.000000
3443,0.430375,0,0.000000
3444,0.430500,0,0.000000
3445,0.430625,0,0.000000
3446,0.430750,0,0.000000
3447,0.430875,0,0.000000
3448,0.431000,0,0.000000
3449,0.431125,0,0.000000
3450,0.431250,0,0.000000
3451,0.431375,0,0.000000
3452,0.431500,0,0.000000
3453,0.431625,0,0.000000
3454,0.431750,0,0.000000
3455,0.431875,0,0.000000
3456,0.432000,0,0.000000
3457,0.432125,0,0.000000
3458,0.432250,0,0.000000
3459,0.432375,0,0.000000
3460,0.432500,0,0.000000
3461,0.432625,0,0.000000
3462,0.432750,0,0.000000
3463,0.432875,0,0.000000
3464,0.433000,0,0.000000
3465,0.433125,0,0.000000
3466,0.433250,0,0.000000
3467,0.433375,0,0.000000
3468,0.433500,0,0.000000
3469,0.433625,0,0.000000
3470,0.433750,0,0.000000
3471,0.433875,0,0.000000
3472,0.434000,0,0.000000
3473,0.434125,0,0.000000
3474,0.434250,0,0.000000
3475,0.434375,0,0.000000
3476,0.434500,0,0.000000
3477,0.434625,0,0.000000
3478,0.434750,0,0.000000
3479,0.434875,0,0.000000
3480,0.435000,0,0.000000
3481,0.435125,0,0.000000
3482,0.435250,0,0.000000
3483,0.435375,0,0.000000
3484,0.435500,0,0.000000
3485,0.435625,0,0.000000
3486,0.435750,0,0.000000
3487,0.435875,0,0.000000
3488,0.436000,0,0.000000
3489,0.436125,0,0.000000
3490,0.436250,0,0.000000
3491,0.436375,0,0.000000
3492,0.436500,0,0.000000
3493,0.436625,0,0.000000
3494,0.436750,0,0.000000
3495,0.436875,0,0.000000
3496,0.437000,0,0.000000
3497,0.437125,0,0.000000
3498,0.437250,0,0.000000
3499,0.437375,0,0.000000
3500,0.437500,0,0.000000
3501,0.437625,0,0.000000
3502,0.437750,0,0.000000
3503,0.437875,0,0.000000
3504,0.438000,0,0.000000
3505,0.438125,0,0.000000
3506,0.438250,0,0.000000
3507,0.438375,0,0.000000
3508,0.438500,0,0.000000
3509,0.438625,0,0.000000
3510,0.438750,0,0.000000
3511,0.438875,0,0.000000
3512,0.439000,0,0.000000
3513,0.439125,0,0.000000
3514,0.439250,0,0.000000
3515,0.439375,0,0.000000
3516,0.439500,0,0.000000
3517,0.439625,0,0.000000
3518,0.439750,0,0.000000
3519,0.439875,0,0.000000
3520,0.440000,0,0.000000
3521,0.440125,0,0.000000
3522,0.440250,0,0.000000
3523,0.440375,0,0.000000
3524,0.440500,0,0.000000
3525,0.440625,0,0.000000
3526,0.440750,0,0.000000
3527,0.440875,0,0.000000
3528,0.441000,0,0.000000
3529,0.441125,0,0.000000
3530,0.441250,0,0.000000
3531,0.441375,0,0.000000
3532,0.441500,0,0.000000
3533,0.441625,0,0.000000
3534,0.441750,0,0.000000
3535,0.441875,0,0.000000
3536,0.442000,0,0.000000
3537,0.442125,0,0.000000
3538,0.442250,0,0.000000
3539,0.442375,0,0.000000
3540,0.442500,0,0.000000
3541,0.442625,0,0.000000
3542,0.442750,0,0.000000
3543,0.442875,0,0.000000
3544,0.443000,0,0.000000
3545,0.443125,0,0.000000
3546,0.443250,0,0.000000
3547,0.443375,0,0.000000
3548,0.443500,0,0.000000
3549,0.443625,0,0.000000
3550,0.443750,0,0.000000
3551,0.443875,0,0.000000
3552,0.444000,0,0.000000
3553,0.444125,0,0.000000
3554,0.444250,0,0.000000
3555,0.444375,0,0.000000
3556,0.444500,0,0.000000
3557,0.444625,0,0.000000
3558,0.444750,0,0.000000
3559,0.444875,0,0.000000
3560,0.445000,0,0.000000
3561,0.445125,0,0.000000
3562,0.445250,0,0.000000
3563,0.445375,0,0.000000
3564,0.445500,0,0.000000
3565,0.445625,0,0.000000
3566,0.445750,0,0.000000
3567,0.445875,0,0.000000
3568,0.446000,0,0.000000
3569,0.446125,0,0.000000
3570,0.446250,0,0.000000
3571,0.446375,0,0.000000
3572,0.446500,0,0.000000
3573,0.446625,0,0.000000
3574,0.446750,0,0.000000
3575,0.446875,0,0.000000
3576,0.447000,0,0.000000
3577,0.447125,0,0.000000
3578,0.447250,0,0.000000
3579,0.447375,0,0.000000
3580,0.447500,0,0.000000
3581,0.447625,0,0.000000
3582,0.447750,0,0.000000
3583,0.447875,0,0.000000
3584,0.448000,0,0.000000
3585,0.448125,0,0.000000
3586,0.448250,0,0.000000
3587,0.448375,0,0.000000
3588,0.448500,0,0.000000
3589,0.448625,0,0.000000
3590,0.448750,0,0.000000
3591,0.448875,0,0.000000
3592,0.449000,0,0.000000
3593,0.449125,0,0.000000
3594,0.449250,0,0.000000
3595,0.449375,0,0.000000
3596,0.449500,0,0.000000
3597,0.449625,0,0.000000
3598,0.449750,0,0.000000
3599,0.449875,0,0.000000
3600,0.450000,0,0.000000
3601,0.450125,0,0.000000
3602,0.450250,0,0.000000
3603,0.450375,0,0.000000
3604,0.450500,0,0.000000
3605,0.450625,0,0.000000
3606,0.450750,0,0.000000
3607,0.450875,0,0.000000
3608,0.451000,0,0.000000
3609,0.451125,0,0.000000
3610,0.451250,0,0.000000
3611,0.451375,0,0.000000
3612,0.451500,0,0.000000
3613,0.451625,0,0.000000
3614,0.451750,0,0.000000
3615,0.451875,0,0.000000
3616,0.452000,0,0.000000
3617,0.452125,0,0.000000
3618,0.452250,0,0.000000
3619,0.452375,0,0.000000
3620,0.452500,0,0.000000
3621,0.452625,0,0.000000
3622,0.452750,0,0.000000
3623,0.452875,0,0.000000
3624,0.453000,0,0.000000
3625,0.453125,0,0.000000
3626,0.453250,0,0.000000
3627,0.453375,0,0.000000
3628,0.453500,0,0.000000
3629,0.453625,0,0.000000
3630,0.453750,0,0.000000
3631,0.453875,0,0.000000
3632,0.454000,0,0.000000
3633,0.454125,0,0.000000
3634,0.454250,0,0.000000
3635,0.454375,0,0.000000
3636,0.454500,0,0.000000
3637,0.454625,0,0.000000
3638,0.454750,0,0.000000
3639,0.454875,0,0.000000
3640,0.455000,0,0.000000
3641,0.455125,0,0.000000
3642,0.455250,0,0.000000
3643,0.455375,0,0.000000
3644,0.455500,0,0.000000
3645,0.455625,0,0.000000
3646,0.455750,0,0.000000
3647,0.455875,0,0.000000
3648,0.456000,0,0.000000
3649,0.456125,0,0.000000
3650,0.456250,0,0.000000
3651,0.456375,0,0.000000
3652,0.456500,0,0.000000
3653,0.456625,0,0.000000
3654,0.456750,0,0.000000
3655,0.456875,0,0.000000
3656,0.457000,0,0.000000
3657,0.457125,0,0.000000
3658,0.457250,0,0.000000
3659,0.457375,0,0.000000
3660,0.457500,0,0.000000
3661,0.457625,0,0.000000
3662,0.457750,0,0.000000
3663,0.457875,0,0.000000
3664,0.458000,0,0.000000
3665,0.458125,0,0.000000
3666,0.458250,0,0.000000
3667,0.458375,0,0.000000
3668,0.458500,0,0.000000
3669,0.458625,0,0.000000
3670,0.458750,0,0.000000
3671,0.458875,0,0.000000
3672,0.459000,0,0.000000
3673,0.459125,0,0.000000
3674,0.459250,0,0.000000
3675,0.459375,0,0.000000
3676,0.459500,0,0.000000
3677,0.459625,0,0.000000
3678,0.459750,0,0.000000
3679,0.459875,0,0.000000
3680,0.460000,0,0.000000
3681,0.460125,0,0.000000
3682,0.460250,0,0.000000
3683,0.460375,0,0.000000
3684,0.460500,0,0.000000
3685,0.460625,0,0.000000
3686,0.460750,0,0.000000
3687,0.460875,0,0.000000
3688,0.461000,0,0.000000
3689,0.461125,0,0.000000
3690,0.461250,0,0.000000
3691,0.461375,0,0.000000
3692,0.461500,0,0.000000
3693,0.461625,0,0.000000
3694,0.461750,0,0.000000
3695,0.461875,0,0.000000
3696,0.462000,0,0.000000
3697,0.462125,0,0.000000
3698,0.462250,0,0.000000
3699,0.462375,0,0.000000
3700,0.462500,0,0.000000
3701,0.462625,0,0.000000
3702,0.462750,0,0.000000
3703,0.462875,0,0.000000
3704,0.463000,0,0.000000
3705,0.463125,0,0.000000
3706,0.463250,0,0.000000
3707,0.463375,0,0.000000
3708,0.463500,0,0.000000
3709,0.463625,0,0.000000
3710,0.463750,0,0.000000
3711,0.463875,0,0.000000
3712,0.464000,0,0.000000
3713,0.464125,0,0.000000
3714,0.464250,0,0.000000
3715,0.464375,0,0.000000
3716,0.464500,0,0.000000
3717,0.464625,0,0.000000
3718,0.464750,0,0.000000
3719,0.464875,0,0.000000
3720,0.465000,0,0.000000
3721,0.465125,0,0.000000
3722,0.465250,0,0.000000
3723,0.465375,0,0.000000
3724,0.465500,0,0.000000
3725,0.465625,0,0.000000
3726,0.465750,0,0.000000
3727,0.465875,0,0.000000
3728,0.466000,0,0.000000
3729,0.466125,0,0.000000
3730,0.466250,0,0.000000
3731,0.466375,0,0.000000
3732,0.466500,0,0.000000
3733,0.466625,0,0.000000
3734,0.466750,0,0.000000
3735,0.466875,0,0.000000
3736,0.467000,0,0.000000
3737,0.467125,0,0.000000
3738,0.467250,0,0.000000
3739,0.467375,0,0.000000
3740,0.467500,0,0.000000
3741,0.467625,0,0.000000
3742,0.467750,0,0.000000
3743,0.467875,0,0.000000
3744,0.468000,0,0.000000
3745,0.468125,0,0.000000
3746,0.468250,0,0.000000
3747,0.468375,0,0.000000
3748,0.468500,0,0.000000
3749,0.468625,0,0.000000
3750,0.468750,0,0.000000
3751,0.468875,0,0.000000
3752,0.469000,0,0.000000
3753,0.469125,0,0.000000
3754,0.469250,0,0.000000
3755,0.469375,0,0.000000
3756,0.469500,0,0.000000
3757,0.469625,0,0.000000
3758,0.469750,0,0.000000
3759,0.469875,0,0.000000
3760,0.470000,0,0.000000
3761,0.470125,0,0.000000
3762,0.470250,0,0.000000
3763,0.470375,0,0.000000
3764,0.470500,0,0.000000
3765,0.470625,0,0.000000
3766,0.470750,0,0.000000
3767,0.470875,0,0.000000
3768,0.471000,0,0.000000
3769,0.471125,0,0.000000
3770,0.471250,0,0.000000
3771,0.471375,0,0.000000
3772,0.471500,0,0.000000
3773,0.471625,0,0.000000
3774,0.471750,0,0.000000
3775,0.471875,0,0.000000
3776,0.472000,0,0.000000
3777,0.472125,0,0.000000
3778,0.472250,0,0.000000
3779,0.472375,0,0.000000
3780,0.472500,0,0.000000
3781,0.472625,0,0.000000
3782,0.472750,0,0.000000
3783,0.472875,0,0.000000
3784,0.473000,0,0.000000
3785,0.473125,0,0.000000
3786,0.473250,0,0.000000
3787,0.473375,0,0.000000
3788,0.473500,0,0.000000
3789,0.473625,0,0.000000
3790,0.473750,0,0.000000
3791,0.473875,0,0.000000
3792,0.474000,0,0.000000
3793,0.474125,0,0.000000
3794,0.474250,0,0.000000
3795,0.474375,0,0.000000
3796,0.474500,0,0.000000
3797,0.474625,0,0.000000
3798,0.474750,0,0.000000
3799,0.474875,0,0.000000
3800,0.475000,0,0.000000
3801,0.475125,0,0.000000
3802,0.475250,0,0.000000
3803,0.475375,0,0.000000
3804,0.475500,0,0.000000
3805,0.475625,0,0.000000
3806,0.475750,0,0.000000
3807,0.475875,0,0.000000
3808,0.476000,0,0.000000
3809,0.476125,0,0.000000
3810,0.476250,0,0.000000
3811,0.476375,0,0.000000
3812,0.476500,0,0.000000
3813,0.476625,0,0.000000
3814,0.476750,0,0.000000
3815,0.476875,0,0.000000
3816,0.477000,0,0.000000
3817,0.477125,0,0.000000
3818,0.477250,0,0.000000
3819,0.477375,0,0.000000
3820,0.477500,0,0.000000
3821,0.477625,0,0.000000
3822,0.477750,0,0.000000
3823,0.477875,0,0.000000
3824,0.478000,0,0.000000
3825,0.478125,0,0.000000
3826,0.478250,0,0.000000
3827,0.478375,0,0.000000
3828,0.478500,0,0.000000
3829,0.478625,0,0.000000
3830,0.478750,0,0.000000
3831,0.478875,0,0.000000
3832,0.479000,0,0.000000
3833,0.479125,0,0.000000
3834,0.479250,0,0.000000
3835,0.479375,0,0.000000
3836,0.479500,0,0.000000
3837,0.479625,0,0.000000
3838,0.479750,0,0.000000
3839,0.479875,0,0.000000
3840,0.480000,0,0.000000
3841,0.480125,0,0.000000
3842,0.480250,0,0.000000
3843,0.480375,0,0.000000
3844,0.480500,0,0.000000
3845,0.480625,0,0.000000
3846,0.480750,0,0.000000
3847,0.480875,0,0.000000
3848,0.481000,0,0.000000
3849,0.481125,0,0.000000
3850,0.481250,0,0.000000
3851,0.481375,0,0.000000
3852,0.481500,0,0.000000
3853,0.481625,0,0.000000
3854,0.481750,0,0.000000
3855,0.481875,0,0.000000
3856,0.482000,0,0.000000
3857,0.482125,0,0.000000
3858,0.482250,0,0.000000
3859,0.482375,0,0.000000
3860,0.482500,0,0.000000
3861,0.482625,0,0.000000
3862,0.482750,0,0.000000
3863,0.482875,0,0.000000
3864,0.483000,0,0.000000
3865,0.483125,0,0.000000
3866,0.483250,0,0.000000
3867,0.483375,0,0.000000
3868,0.483500,0,0.000000
3869,0.483625,0,0.000000
3870,0.483750,0,0.000000
3871,0.483875,0,0.000000
3872,0.484000,0,0.000000
3873,0.484125,0,0.000000
3874,0.484250,0,0.000000
3875,0.484375,0,0.000000
3876,0.484500,0,0.000000
3877,0.484625,0,0.000000
3878,0.484750,0,0.000000
3879,0.484875,0,0.000000
3880,0.485000,0,0.000000
3881,0.485125,0,0.000000
3882,0.485250,0,0.000000
3883,0.485375,0,0.000000
3884,0.485500,0,0.000000
3885,0.485625,0,0.000000
3886,0.485750,0,0.000000
3887,0.485875,0,0.000000
3888,0.486000,0,0.000000
3889,0.486125,0,0.000000
3890,0.486250,0,0.000000
3891,0.486375,0,0.000000
3892,0.486500,0,0.000000
3893,0.486625,0,0.000000
3894,0.486750,0,0.000000
3895,0.486875,0,0.000000
3896,0.487000,0,0.000000
3897,0.487125,0,0.000000
3898,0.487250,0,0.000000
3899,0.487375,0,0.000000
3900,0.487500,0,0.000000
3901,0.487625,0,0.000000
3902,0.487750,0,0.000000
3903,0.487875,0,0.000000
3904,0.488000,0,0.000000
3905,0.488125,0,0.000000
3906,0.488250,0,0.000000
3907,0.488375,0,0.000000
3908,0.488500,0,0.000000
3909,0.488625,0,0.000000
3910,0.488750,0,0.000000
3911,0.488875,0,0.000000
3912,0.489000,0,0.000000
3913,0.489125,0,0.000000
3914,0.489250,0,0.000000
3915,0.489375,0,0.000000
3916,0.489500,0,0.000000
3917,0.489625,0,0.000000
3918,0.489750,0,0.000000
3919,0.489875,0,0.000000
3920,0.490000,0,0.000000
3921,0.490125,0,0.000000
3922,0.490250,0,0.000000
3923,0.490375,0,0.000000
3924,0.490500,0,0.000000
3925,0.490625,0,0.000000
3926,0.490750,0,0.000000
3927,0.490875,0,0.000000
3928,0.491000,0,0.000000
3929,0.491125,0,0.000000
3930,0.491250,0,0.000000
3931,0.491375,0,0.000000
3932,0.491500,0,0.000000
3933,0.491625,0,0.000000
3934,0.491750,0,0.000000
3935,0.491875,0,0.000000
3936,0.492000,0,0.000000
3937,0.492125,0,0.000000
3938,0.492250,0,0.000000
3939,0.492375,0,0.000000
3940,0.492500,0,0.000000
3941,0.492625,0,0.000000
3942,0.492750,0,0.000000
3943,0.492875,0,0.000000
3944,0.493000,0,0.000000
3945,0.493125,0,0.000000
3946,0.493250,0,0.000000
3947,0.493375,0,0.000000
3948,0.493500,0,0.000000
3949,0.493625,0,0.000000
3950,0.493750,0,0.000000
3951,0.493875,0,0.000000
3952,0.494000,0,0.000000
3953,0.494125,0,0.000000
3954,0.494250,0,0.000000
3955,0.494375,0,0.000000
3956,0.494500,0,0.000000
3957,0.494625,0,0.000000
3958,0.494750,0,0.000000
3959,0.494875,0,0.000000
3960,0.495000,0,0.000000
3961,0.495125,0,0.000000
3962,0.495250,0,0.000000
3963,0.495375,0,0.000000
3964,0.495500,0,0.000000
3965,0.495625,0,0.000000
3966,0.495750,0,0.000000
3967,0.495875,0,0.000000
3968,0.496000,0,0.000000
3969,0.496125,0,0.000000
3970,0.496250,0,0.000000
3971,0.496375,0,0.000000
3972,0.496500,0,0.000000
3973,0.496625,0,0.000000
3974,0.496750,0,0.000000
3975,0.496875,0,0.000000
3976,0.497000,0,0.000000
3977,0.497125,0,0.000000
3978,0.497250,0,0.000000
3979,0.497375,0,0.000000
3980,0.497500,0,0.000000
3981,0.497625,0,0.000000
3982,0.497750,0,0.000000
3983,0.497875,0,0.000000
3984,0.498000,0,0.000000
3985,0.498125,0,0.000000
3986,0.498250,0,0.000000
3987,0.498375,0,0.000000
3988,0.498500,0,0.000000
3989,0.498625,0,0.000000
3990,0.498750,0,0.000000
3991,0.498875,0,0.000000
3992,0.499000,0,0.000000
3993,0.499125,0,0.000000
3994,0.499250,0,0.000000
3995,0.499375,0,0.000000
3996,0.499500,0,0.000000
3997,0.499625,0,0.000000
3998,0.499750,0,0.000000
3999,0.499875,0,0.000000
4000,0.500000,0,0.000000
4001,0.500125,2571,0.078463
4002,0.500250,5126,0.156438
4003,0.500375,7649,0.233436
4004,0.500500,10126,0.309030
4005,0.500625,12539,0.382672
4006,0.500750,14876,0.453993
4007,0.500875,17121,0.522507
4008,0.501000,19260,0.587786
4009,0.501125,21280,0.649434
4010,0.501250,23170,0.707114
4011,0.501375,24916,0.760399
4012,0.501500,26509,0.809015
4013,0.501625,27938,0.852626
4014,0.501750,29196,0.891018
4015,0.501875,30273,0.923887
4016,0.502000,31163,0.951048
4017,0.502125,31862,0.972381
4018,0.502250,32364,0.987701
4019,0.502375,32666,0.996918
4020,0.502500,32767,1.000000
4021,0.502625,32666,0.996918
4022,0.502750,32364,0.987701
4023,0.502875,31862,0.972381
4024,0.503000,31163,0.951048
4025,0.503125,30273,0.923887
4026,0.503250,29196,0.891018
4027,0.503375,27938,0.852626
4028,0.503500,26509,0.809015
4029,0.503625,24916,0.760399
4030,0.503750,23170,0.707114
4031,0.503875,21280,0.649434
4032,0.504000,19260,0.587786
4033,0.504125,17121,0.522507
4034,0.504250,14876,0.453993
4035,0.504375,12539,0.382672
4036,0.504500,10126,0.309030
4037,0.504625,7649,0.233436
4038,0.504750,5126,0.156438
4039,0.504875,2571,0.078463
4040,0.505000,0,0.000000
4041,0.505125,-2571,-0.078463
4042,0.505250,-5126,-0.156438
4043,0.505375,-7649,-0.233436
4044,0.505500,-10126,-0.309030
4045,0.505625,-12539,-0.382672
4046,0.505750,-14876,-0.453993
4047,0.505875,-17121,-0.522507
4048,0.506000,-19260,-0.587786
4049,0.506125,-21280,-0.649434
4050,0.506250,-23170,-0.707114
4051,0.506375,-24916,-0.760399
4052,0.506500,-26509,-0.809015
4053,0.506625,-27938,-0.852626
4054,0.506750,-29196,-0.891018
4055,0.506875,-30273,-0.923887
4056,0.507000,-31163,-0.951048
4057,0.507125,-31862,-0.972381
4058,0.507250,-32364,-0.987701
4059,0.507375,-32666,-0.996918
4060,0.507500,-32767,-1.000000
4061,0.507625,-32666,-0.996918
4062,0.507750,-32364,-0.987701
4063,0.507875,-31862,-0.972381
4064,0.508000,-31163,-0.951048
4065,0.508125,-30273,-0.923887
4066,0.508250,-29196,-0.891018
4067,0.508375,-27938,-0.852626
4068,0.508500,-26509,-0.809015
4069,0.508625,-24916,-0.760399
4070,0.508750,-23170,-0.707114
4071,0.508875,-21280,-0.649434
4072,0.509000,-19260,-0.587786
4073,0.509125,-17121,-0.522507
4074,0.509250,-14876,-0.453993
4075,0.509375,-12539,-0.382672
4076,0.509500,-10126,-0.309030
4077,0.509625,-7649,-0.233436
4078,0.509750,-5126,-0.156438
4079,0.509875,-2571,-0.078463
4080,0.510000,0,0.000000
4081,0.510125,2571,0.078463
4082,0.510250,5126,0.156438
4083,0.510375,7649,0.233436
4084,0.510500,10126,0.309030
4085,0.510625,12539,0.382672
4086,0.510750,14876,0.453993
4087,0.510875,17121,0.522507
4088,0.511000,19260,0.587786
4089,0.511125,21280,0.649434
4090,0.511250,23170,0.707114
4091,0.511375,24916,0.760399
4092,0.511500,26509,0.809015
4093,0.511625,27938,0.852626
4094,0.511750,29196,0.891018
4095,0.511875,30273,0.923887
4096,0.512000,31163,0.951048
4097,0.512125,31862,0.972381
4098,0.512250,32364,0.987701
4099,0.512375,32666,0.996918
4100,0.512500,32767,1.000000
4101,0.512625,32666,0.996918
4102,0.512750,32364,0.987701
4103,0.512875,31862,0.972381
4104,0.513000,31163,0.951048
4105,0.513125,30273,0.923887
4106,0.513250,29196,0.891018
4107,0.513375,27938,0.852626
4108,0.513500,26509,0.809015
4109,0.513625,24916,0.760399
4110,0.513750,23170,0.707114
4111,0.513875,21280,0.649434
4112,0.514000,19260,0.587786
4113,0.514125,17121,0.522507
4114,0.514250,14876,0.453993
4115,0.514375,12539,0.382672
4116,0.514500,10126,0.309030
4117,0.514625,7649,0.233436
4118,0.514750,5126,0.156438
4119,0.514875,2571,0.078463
4120,0.515000,0,0.000000
4121,0.515125,-2571,-0.078463
4122,0.515250,-5126,-0.156438
4123,0.515375,-7649,-0.233436
4124,0.515500,-10126,-0.309030
4125,0.515625,-12539,-0.382672
4126,0.515750,-14876,-0.453993
4127,0.515875,-17121,-0.522507
4128,0.516000,-19260,-0.587786
4129,0.516125,-21280,-0.649434
4130,0.516250,-23170,-0.707114
4131,0.516375,-24916,-0.760399
4132,0.516500,-26509,-0.809015
4133,0.516625,-27938,-0.852626
4134,0.516750,-29196,-0.891018
4135,0.516875,-30273,-0.923887
4136,0.517000,-31163,-0.951048
4137,0.517125,-31862,-0.972381
4138,0.517250,-32364,-0.987701
4139,0.517375,-32666,-0.996918
4140,0.517500,-32767,-1.000000
4141,0.517625,-32666,-0.996918
4142,0.517750,-32364,-0.987701
4143,0.517875,-31862,-0.972381
4144,0.518000,-31163,-0.951048
4145,0.518125,-30273,-0.923887
4146,0.518250,-29196,-0.891018
4147,0.518375,-27938,-0.852626
4148,0.518500,-26509,-0.809015
4149,0.518625,-24916,-0.760399
4150,0.518750,-23170,-0.707114
4151,0.518875,-21280,-0.649434
4152,0.519000,-19260,-0.587786
4153,0.519125,-17121,-0.522507
4154,0.519250,-14876,-0.453993
4155,0.519375,-12539,-0.382672
4156,0.519500,-10126,-0.309030
4157,0.519625,-7649,-0.233436
4158,0.519750,-5126,-0.156438
4159,0.519875,-2571,-0.078463
4160,0.520000,0,0.000000
4161,0.520125,2571,0.078463
4162,0.520250,5126,0.156438
4163,0.520375,7649,0.233436
4164,0.520500,10126,0.309030
4165,0.520625,12539,0.382672
4166,0.520750,14876,0.453993
4167,0.520875,17121,0.522507
4168,0.521000,19260,0.587786
4169,0.521125,21280,0.649434
4170,0.521250,23170,0.707114
4171,0.521375,24916,0.760399
4172,0.521500,26509,0.809015
4173,0.521625,27938,0.852626
4174,0.521750,29196,0.891018
4175,0.521875,30273,0.923887
4176,0.522000,31163,0.951048
4177,0.522125,31862,0.972381
4178,0.522250,32364,0.987701
4179,0.522375,32666,0.996918
4180,0.522500,32767,1.000000
4181,0.522625,32666,0.996918
4182,0.522750,32364,0.987701
4183,0.522875,31862,0.972381
4184,0.523000,31163,0.951048
4185,0.523125,30273,0.923887
4186,0.523250,29196,0.891018
4187,0.523375,27938,0.852626
4188,0.523500,26509,0.809015
4189,0.523625,24916,0.760399
4190,0.523750,23170,0.707114
4191,0.523875,21280,0.649434
4192,0.524000,19260,0.587786
4193,0.524125,17121,0.522507
4194,0.524250,14876,0.453993
4195,0.524375,12539,0.382672
4196,0.524500,10126,0.309030
4197,0.524625,7649,0.233436
4198,0.524750,5126,0.156438
4199,0.524875,2571,0.078463
4200,0.525000,0,0.000000
4201,0.525125,-2571,-0.078463
4202,0.525250,-5126,-0.156438
4203,0.525375,-7649,-0.233436
4204,0.525500,-10126,-0.309030
4205,0.525625,-12539,-0.382672
4206,0.525750,-14876,-0.453993
4207,0.525875,-17121,-0.522507
4208,0.526000,-19260,-0.587786
4209,0.526125,-21280,-0.649434
4210,0.526250,-23170,-0.707114
4211,0.526375,-24916,-0.760399
4212,0.526500,-26509,-0.809015
4213,0.526625,-27938,-0.852626
4214,0.526750,-29196,-0.891018
4215,0.526875,-30273,-0.923887
4216,0.527000,-31163,-0.951048
4217,0.527125,-31862,-0.972381
4218,0.527250,-32364,-0.987701
4219,0.527375,-32666,-0.996918
4220,0.527500,-32767,-1.000000
4221,0.527625,-32666,-0.996918
4222,0.527750,-32364,-0.987701
4223,0.527875,-31862,-0.972381
4224,0.528000,-31163,-0.951048
4225,0.528125,-30273,-0.923887
4226,0.528250,-29196,-0.891018
4227,0.528375,-27938,-0.852626
4228,0.528500,-26509,-0.809015
4229,0.528625,-24916,-0.760399
4230,0.528750,-23170,-0.707114
4231,0.528875,-21280,-0.649434
4232,0.529000,-19260,-0.587786
4233,0.529125,-17121,-0.522507
4234,0.529250,-14876,-0.453993
4235,0.529375,-12539,-0.382672
4236,0.529500,-10126,-0.309030
4237,0.529625,-7649,-0.233436
4238,0.529750,-5126,-0.156438
4239,0.529875,-2571,-0.078463
4240,0.530000,0,0.000000
4241,0.530125,0,0.000000
4242,0.530250,0,0.000000
4243,0.530375,0,0.000000
4244,0.530500,0,0.000000
4245,0.530625,0,0.000000
4246,0.530750,0,0.000000
4247,0.530875,0,0.000000
4248,0.531000,0,0.000000
4249,0.531125,0,0.000000
4250,0.531250,0,0.000000
4251,0.531375,0,0.000000
4252,0.531500,0,0.000000
4253,0.531625,0,0.000000
4254,0.531750,0,0.000000
4255,0.531875,0,0.000000
4256,0.532000,0,0.000000
4257,0.532125,0,0.000000
4258,0.532250,0,0.000000
4259,0.532375,0,0.000000
4260,0.532500,0,0.000000
4261,0.532625,0,0.000000
4262,0.532750,0,0.000000
4263,0.532875,0,0.000000
4264,0.533000,0,0.000000
4265,0.533125,0,0.000000
4266,0.533250,0,0.000000
4267,0.533375,0,0.000000
4268,0.533500,0,0.000000
4269,0.533625,0,0.000000
4270,0.533750,0,0.000000
4271,0.533875,0,0.000000
4272,0.534000,0,0.000000
4273,0.534125,0,0.000000
4274,0.534250,0,0.000000
4275,0.534375,0,0.000000
4276,0.534500,0,0.000000
4277,0.534625,0,0.000000
4278,0.534750,0,0.000000
4279,0.534875,0,0.000000
4280,0.535000,0,0.000000
4281,0.535125,0,0.000000
4282,0.535250,0,0.000000
4283,0.535375,0,0.000000
4284,0.535500,0,0.000000
4285,0.535625,0,0.000000
4286,0.535750,0,0.000000
4287,0.535875,0,0.000000
4288,0.536000,0,0.000000
4289,0.536125,0,0.000000
4290,0.536250,0,0.000000
4291,0.536375,0,0.000000
4292,0.536500,0,0.000000
4293,0.536625,0,0.000000
4294,0.536750,0,0.000000
4295,0.536875,0,0.000000
4296,0.537000,0,0.000000
4297,0.537125,0,0.000000
4298,0.537250,0,0.000000
4299,0.537375,0,0.000000
4300,0.537500,0,0.000000
4301,0.537625,0,0.000000
4302,0.537750,0,0.000000
4303,0.537875,0,0.000000
4304,0.538000,0,0.000000
4305,0.538125,0,0.000000
4306,0.538250,0,0.000000
4307,0.538375,0,0.000000
4308,0.538500,0,0.000000
4309,0.538625,0,0.000000
4310,0.538750,0,0.000000
4311,0.538875,0,0.000000
4312,0.539000,0,0.000000
4313,0.539125,0,0.000000
4314,0.539250,0,0.000000
4315,0.539375,0,0.000000
4316,0.539500,0,0.000000
4317,0.539625,0,0.000000
4318,0.539750,0,0.000000
4319,0.539875,0,0.000000
4320,0.540000,0,0.000000
4321,0.540125,0,0.000000
4322,0.540250,0,0.000000
4323,0.540375,0,0.000000
4324,0.540500,0,0.000000
4325,0.540625,0,0.000000
4326,0.540750,0,0.000000
4327,0.540875,0,0.000000
4328,0.541000,0,0.000000
4329,0.541125,0,0.000000
4330,0.541250,0,0.000000
4331,0.541375,0,0.000000
4332,0.541500,0,0.000000
4333,0.541625,0,0.000000
4334,0.541750,0,0.000000
4335,0.541875,0,0.000000
4336,0.542000,0,0.000000
4337,0.542125,0,0.000000
4338,0.542250,0,0.000000
4339,0.542375,0,0.000000
4340,0.542500,0,0.000000
4341,0.542625,0,0.000000
4342,0.542750,0,0.000000
4343,0.542875,0,0.000000
4344,0.543000,0,0.000000
4345,0.543125,0,0.000000
4346,0.543250,0,0.000000
4347,0.543375,0,0.000000
4348,0.543500,0,0.000000
4349,0.543625,0,0.000000
4350,0.543750,0,0.000000
4351,0.543875,0,0.000000
4352,0.544000,0,0.000000
4353,0.544125,0,0.000000
4354,0.544250,0,0.000000
4355,0.544375,0,0.000000
4356,0.544500,0,0.000000
4357,0.544625,0,0.000000
4358,0.544750,0,0.000000
4359,0.544875,0,0.000000
4360,0.545000,0,0.000000
4361,0.545125,0,0.000000
4362,0.545250,0,0.000000
4363,0.545375,0,0.000000
4364,0.545500,0,0.000000
4365,0.545625,0,0.000000
4366,0.545750,0,0.000000
4367,0.545875,0,0.000000
4368,0.546000,0,0.000000
4369,0.546125,0,0.000000
4370,0.546250,0,0.000000
4371,0.546375,0,0.000000
4372,0.546500,0,0.000000
4373,0.546625,0,0.000000
4374,0.546750,0,0.000000
4375,0.546875,0,0.000000
4376,0.547000,0,0.000000
4377,0.547125,0,0.000000
4378,0.547250,0,0.000000
4379,0.547375,0,0.000000
4380,0.547500,0,0.000000
4381,0.547625,0,0.000000
4382,0.547750,0,0.000000
4383,0.547875,0,0.000000
4384,0.548000,0,0.000000
4385,0.548125,0,0.000000
4386,0.548250,0,0.000000
4387,0.548375,0,0.000000
4388,0.548500,0,0.000000
4389,0.548625,0,0.000000
4390,0.548750,0,0.000000
4391,0.548875,0,0.000000
4392,0.549000,0,0.000000
4393,0.549125,0,0.000000
4394,0.549250,0,0.000000
4395,0.549375,0,0.000000
4396,0.549500,0,0.000000
4397,0.549625,0,0.000000
4398,0.549750,0,0.000000
4399,0.549875,0,0.000000
4400,0.550000,0,0.000000
4401,0.550125,0,0.000000
4402,0.550250,0,0.000000
4403,0.550375,0,0.000000
4404,0.550500,0,0.000000
4405,0.550625,0,0.000000
4406,0.550750,0,0.000000
4407,0.550875,0,0.000000
4408,0.551000,0,0.000000
4409,0.551125,0,0.000000
4410,0.551250,0,0.000000
4411,0.551375,0,0.000000
4412,0.551500,0,0.000000
4413,0.551625,0,0.000000
4414,0.551750,0,0.000000
4415,0.551875,0,0.000000
4416,0.552000,0,0.000000
4417,0.552125,0,0.000000
4418,0.552250,0,0.000000
4419,0.552375,0,0.000000
4420,0.552500,0,0.000000
4421,0.552625,0,0.000000
4422,0.552750,0,0.000000
4423,0.552875,0,0.000000
4424,0.553000,0,0.000000
4425,0.553125,0,0.000000
4426,0.553250,0,0.000000
4427,0.553375,0,0.000000
4428,0.553500,0,0.000000
4429,0.553625,0,0.000000
4430,0.553750,0,0.000000
4431,0.553875,0,0.000000
4432,0.554000,0,0.000000
4433,0.554125,0,0.000000
4434,0.554250,0,0.000000
4435,0.554375,0,0.000000
4436,0.554500,0,0.000000
4437,0.554625,0,0.000000
4438,0.554750,0,0.000000
4439,0.554875,0,0.000000
4440,0.555000,0,0.000000
4441,0.555125,0,0.000000
4442,0.555250,0,0.000000
4443,0.555375,0,0.000000
4444,0.555500,0,0.000000
4445,0.555625,0,0.000000
4446,0.555750,0,0.000000
4447,0.555875,0,0.000000
4448,0.556000,0,0.000000
4449,0.556125,0,0.000000
4450,0.556250,0,0.000000
4451,0.556375,0,0.000000
4452,0.556500,0,0.000000
4453,0.556625,0,0.000000
4454,0.556750,0,0.000000
4455,0.556875,0,0.000000
4456,0.557000,0,0.000000
4457,0.557125,0,0.000000
4458,0.557250,0,0.000000
4459,0.557375,0,0.000000
4460,0.557500,0,0.000000
4461,0.557625,0,0.000000
4462,0.557750,0,0.000000
4463,0.557875,0,0.000000
4464,0.558000,0,0.000000
4465,0.558125,0,0.000000
4466,0.558250,0,0.000000
4467,0.558375,0,0.000000
4468,0.558500,0,0.000000
4469,0.558625,0,0.000000
4470,0.558750,0,0.000000
4471,0.558875,0,0.000000
4472,0.559000,0,0.000000
4473,0.559125,0,0.000000
4474,0.559250,0,0.000000
4475,0.559375,0,0.000000
4476,0.559500,0,0.000000
4477,0.559625,0,0.000000
4478,0.559750,0,0.000000
4479,0.559875,0,0.000000
4480,0.560000,0,0.000000
4481,0.560125,0,0.000000
4482,0.560250,0,0.000000
4483,0.560375,0,0.000000
4484,0.560500,0,0.000000
4485,0.560625,0,0.000000
4486,0.560750,0,0.000000
4487,0.560875,0,0.000000
4488,0.561000,0,0.000000
4489,0.561125,0,0.000000
4490,0.561250,0,0.000000
4491,0.561375,0,0.000000
4492,0.561500,0,0.000000
4493,0.561625,0,0.000000
4494,0.561750,0,0.000000
4495,0.561875,0,0.000000
4496,0.562000,0,0.000000
4497,0.562125,0,0.000000
4498,0.562250,0,0.000000
4499,0.562375,0,0.000000
4500,0.562500,0,0.000000
4501,0.562625,0,0.000000
4502,0.562750,0,0.000000
4503,0.562875,0,0.000000
4504,0.563000,0,0.000000
4505,0.563125,0,0.000000
4506,0.563250,0,0.000000
4507,0.563375,0,0.000000
4508,0.563500,0,0.000000
4509,0.563625,0,0.000000
4510,0.563750,0,0.000000
4511,0.563875,0,0.000000
4512,0.564000,0,0.000000
4513,0.564125,0,0.000000
4514,0.564250,0,0.000000
4515,0.564375,0,0.000000
4516,0.564500,0,0.000000
4517,0.564625,0,0.000000
4518,0.564750,0,0.000000
4519,0.564875,0,0.000000
4520,0.565000,0,0.000000
4521,0.565125,0,0.000000
4522,0.565250,0,0.000000
4523,0.565375,0,0.000000
4524,0.565500,0,0.000000
4525,0.565625,0,0.000000
4526,0.565750,0,0.000000
4527,0.565875,0,0.000000
4528,0.566000,0,0.000000
4529,0.566125,0,0.000000
4530,0.566250,0,0.000000
4531,0.566375,0,0.000000
4532,0.566500,0,0.000000
4533,0.566625,0,0.000000
4534,0.566750,0,0.000000
4535,0.566875,0,0.000000
4536,0.567000,0,0.000000
4537,0.567125,0,0.000000
4538,0.567250,0,0.000000
4539,0.567375,0,0.000000
4540,0.567500,0,0.000000
4541,0.567625,0,0.000000
4542,0.567750,0,0.000000
4543,0.567875,0,0.000000
4544,0.568000,0,0.000000
4545,0.568125,0,0.000000
4546,0.568250,0,0.000000
4547,0.568375,0,0.000000
4548,0.568500,0,0.000000
4549,0.568625,0,0.000000
4550,0.568750,0,0.000000
4551,0.568875,0,0.000000
4552,0.569000,0,0.000000
4553,0.569125,0,0.000000
4554,0.569250,0,0.000000
4555,0.569375,0,0.000000
4556,0.569500,0,0.000000
4557,0.569625,0,0.000000
4558,0.569750,0,0.000000
4559,0.569875,0,0.000000
4560,0.570000,0,0.000000
4561,0.570125,0,0.000000
4562,0.570250,0,0.000000
4563,0.570375,0,0.000000
4564,0.570500,0,0.000000
4565,0.570625,0,0.000000
4566,0.570750,0,0.000000
4567,0.570875,0,0.000000
4568,0.571000,0,0.000000
4569,0.571125,0,0.000000
4570,0.571250,0,0.000000
4571,0.571375,0,0.000000
4572,0.571500,0,0.000000
4573,0.571625,0,0.000000
4574,0.571750,0,0.000000
4575,0.571875,0,0.000000
4576,0.572000,0,0.000000
4577,0.572125,0,0.000000
4578,0.572250,0,0.000000
4579,0.572375,0,0.000000
4580,0.572500,0,0.000000
4581,0.572625,0,0.000000
4582,0.572750,0,0.000000
4583,0.572875,0,0.000000
4584,0.573000,0,0.000000
4585,0.573125,0,0.000000
4586,0.573250,0,0.000000
4587,0.573375,0,0.000000
4588,0.573500,0,0.000000
4589,0.573625,0,0.000000
4590,0.573750,0,0.000000
4591,0.573875,0,0.000000
4592,0.574000,0,0.000000
4593,0.574125,0,0.000000
4594,0.574250,0,0.000000
4595,0.574375,0,0.000000
4596,0.574500,0,0.000000
4597,0.574625,0,0.000000
4598,0.574750,0,0.000000
4599,0.574875,0,0.000000
4600,0.575000,0,0.000000
4601,0.575125,0,0.000000
4602,0.575250,0,0.000000
4603,0.575375,0,0.000000
4604,0.575500,0,0.000000
4605,0.575625,0,0.000000
4606,0.575750,0,0.000000
4607,0.575875,0,0.000000
4608,0.576000,0,0.000000
4609,0.576125,0,0.000000
4610,0.576250,0,0.000000
4611,0.576375,0,0.000000
4612,0.576500,0,0.000000
4613,0.576625,0,0.000000
4614,0.576750,0,0.000000
4615,0.576875,0,0.000000
4616,0.577000,0,0.000000
4617,0.577125,0,0.000000
4618,0.577250,0,0.000000
4619,0.577375,0,0.000000
4620,0.577500,0,0.000000
4621,0.577625,0,0.000000
4622,0.577750,0,0.000000
4623,0.577875,0,0.000000
4624,0.578000,0,0.000000
4625,0.578125,0,0.000000
4626,0.578250,0,0.000000
4627,0.578375,0,0.000000
4628,0.578500,0,0.000000
4629,0.578625,0,0.000000
4630,0.578750,0,0.000000
4631,0.578875,0,0.000000
4632,0.579000,0,0.000000
4633,0.579125,0,0.000000
4634,0.579250,0,0.000000
4635,0.579375,0,0.000000
4636,0.579500,0,0.000000
4637,0.579625,0,0.000000
4638,0.579750,0,0.000000
4639,0.579875,0,0.000000
4640,0.580000,0,0.000000
4641,0.580125,0,0.000000
4642,0.580250,0,0.000000
4643,0.580375,0,0.000000
4644,0.580500,0,0.000000
4645,0.580625,0,0.000000
4646,0.580750,0,0.000000
4647,0.580875,0,0.000000
4648,0.581000,0,0.000000
4649,0.581125,0,0.000000
4650,0.581250,0,0.000000
4651,0.581375,0,0.000000
4652,0.581500,0,0.000000
4653,0.581625,0,0.000000
4654,0.581750,0,0.000000
4655,0.581875,0,0.000000
4656,0.582000,0,0.000000
4657,0.582125,0,0.000000
4658,0.582250,0,0.000000
4659,0.582375,0,0.000000
4660,0.582500,0,0.000000
4661,0.582625,0,0.000000
4662,0.582750,0,0.000000
4663,0.582875,0,0.000000
4664,0.583000,0,0.000000
4665,0.583125,0,0.000000
4666,0.583250,0,0.000000
4667,0.583375,0,0.000000
4668,0.583500,0,0.000000
4669,0.583625,0,0.000000
4670,0.583750,0,0.000000
4671,0.583875,0,0.000000
4672,0.584000,0,0.000000
4673,0.584125,0,0.000000
4674,0.584250,0,0.000000
4675,0.584375,0,0.000000
4676,0.584500,0,0.000000
4677,0.584625,0,0.000000
4678,0.584750,0,0.000000
4679,0.584875,0,0.000000
4680,0.585000,0,0.000000
4681,0.585125,0,0.000000
4682,0.585250,0,0.000000
4683,0.585375,0,0.000000
4684,0.585500,0,0.000000
4685,0.585625,0,0.000000
4686,0.585750,0,0.000000
4687,0.585875,0,0.000000
4688,0.586000,0,0.000000
4689,0.586125,0,0.000000
4690,0.586250,0,0.000000
4691,0.586375,0,0.000000
4692,0.586500,0,0.000000
4693,0.586625,0,0.000000
4694,0.586750,0,0.000000
4695,0.586875,0,0.000000
4696,0.587000,0,0.000000
4697,0.587125,0,0.000000
4698,0.587250,0,0.000000
4699,0.587375,0,0.000000
4700,0.587500,0,0.000000
4701,0.587625,0,0.000000
4702,0.587750,0,0.000000
4703,0.587875,0,0.000000
4704,0.588000,0,0.000000
4705,0.588125,0,0.000000
4706,0.588250,0,0.000000
4707,0.588375,0,0.000000
4708,0.588500,0,0.000000
4709,0.588625,0,0.000000
4710,0.588750,0,0.000000
4711,0.588875,0,0.000000
4712,0.589000,0,0.000000
4713,0.589125,0,0.000000
4714,0.589250,0,0.000000
4715,0.589375,0,0.000000
4716,0.589500,0,0.000000
4717,0.589625,0,0.000000
4718,0.589750,0,0.000000
4719,0.589875,0,0.000000
4720,0.590000,0,0.000000
4721,0.590125,0,0.000000
4722,0.590250,0,0.000000
4723,0.590375,0,0.000000
4724,0.590500,0,0.000000
4725,0.590625,0,0.000000
4726,0.590750,0,0.000000
4727,0.590875,0,0.000000
4728,0.591000,0,0.000000
4729,0.591125,0,0.000000
4730,0.591250,0,0.000000
4731,0.591375,0,0.000000
4732,0.591500,0,0.000000
4733,0.591625,0,0.000000
4734,0.591750,0,0.000000
4735,0.591875,0,0.000000
4736,0.592000,0,0.000000
4737,0.592125,0,0.000000
4738,0.592250,0,0.000000
4739,0.592375,0,0.000000
4740,0.592500,0,0.000000
4741,0.592625,0,0.000000
4742,0.592750,0,0.000000
4743,0.592875,0,0.000000
4744,0.593000,0,0.000000
4745,0.593125,0,0.000000
4746,0.593250,0,0.000000
4747,0.593375,0,0.000000
4748,0.593500,0,0.000000
4749,0.593625,0,0.000000
4750,0.593750,0,0.000000
4751,0.593875,0,0.000000
4752,0.594000,0,0.000000
4753,0.594125,0,0.000000
4754,0.594250,0,0.000000
4755,0.594375,0,0.000000
4756,0.594500,0,0.000000
4757,0.594625,0,0.000000
4758,0.594750,0,0.000000
4759,0.594875,0,0.000000
4760,0.595000,0,0.000000
4761,0.595125,0,0.000000
4762,0.595250,0,0.000000
4763,0.595375,0,0.000000
4764,0.595500,0,0.000000
4765,0.595625,0,0.000000
4766,0.595750,0,0.000000
4767,0.595875,0,0.000000
4768,0.596000,0,0.000000
4769,0.596125,0,0.000000
4770,0.596250,0,0.000000
4771,0.596375,0,0.000000
4772,0.596500,0,0.000000
4773,0.596625,0,0.000000
4774,0.596750,0,0.000000
4775,0.596875,0,0.000000
4776,0.597000,0,0.000000
4777,0.597125,0,0.000000
4778,0.597250,0,0.000000
4779,0.597375,0,0.000000
4780,0.597500,0,0.000000
4781,0.597625,0,0.000000
4782,0.597750,0,0.000000
4783,0.597875,0,0.000000
4784,0.598000,0,0.000000
4785,0.598125,0,0.000000
4786,0.598250,0,0.000000
4787,0.598375,0,0.000000
4788,0.598500,0,0.000000
4789,0.598625,0,0.000000
4790,0.598750,0,0.000000
4791,0.598875,0,0.000000
4792,0.599000,0,0.000000
4793,0.599125,0,0.000000
4794,0.599250,0,0.000000
4795,0.599375,0,0.000000
4796,0.599500,0,0.000000
4797,0.599625,0,0.000000
