emg_value
-8
0
15
32
43
46
42
32
19
10
5
2
-2
-7
-12
-15
-17
-21
-27
-29
-25
-21
-21
-23
-25
-27
-31
-33
-31
-24
-17
-8
0
4
5
8
15
24
33
41
48
52
55
59
58
54
49
51
59
64
63
57
42
17
-5
-21
-34
-47
-61
-71
-75
-77
-74
-66
-55
-43
-33
-24
-17
-11
-4
0
4
15
30
42
49
51
48
40
29
19
12
6
3
2
-3
-13
-25
-29
-23
-16
-18
-20
-17
-14
-10
-7
-3
0
5
11
15
15
14
18
24
23
14
5
-2
-12
-24
-36
-46
-53
-53
-44
-31
-21
-9
3
16
30
41
45
43
41
42
40
34
29
26
22
17
14
10
5
0
0
-3
-12
-27
-41
-41
-29
-13
-3
0
-2
-7
-10
-8
-4
1
6
10
12
12
13
18
21
18
9
-1
-10
-15
-19
-25
-34
-36
-28
-17
-16
-23
-27
-27
-26
-25
-25
-27
-24
-13
-2
3
2
6
17
23
24
21
12
0
-6
-3
3
14
34
53
64
62
50
36
29
30
32
28
20
12
8
5
0
-5
-10
-10
-13
-18
-25
-34
-41
-44
-47
-58
-70
-71
-66
-56
-44
-27
-5
12
29
47
58
58
54
49
42
34
27
24
23
23
23
28
31
24
9
-7
-20
-29
-34
-32
-28
-26
-28
-33
-36
-36
-30
-22
-17
-12
0
18
30
34
35
34
27
20
16
16
12
3
-8
-19
-27
-30
-27
-23
-22
-22
-15
-1
15
34
49
46
28
9
0
-1
2
7
8
1
-14
-27
-33
-37
-41
-45
-48
-50
-51
-50
-47
-39
-28
-15
-2
10
22
32
37
46
63
76
82
81
75
66
59
53
46
35
22
14
13
16
19
20
18
11
-5
-28
-43
-45
-41
-39
-42
-45
-42
-34
-26
-20
-20
-26
-32
-39
-48
-52
-49
-43
-38
-34
-33
-31
-28
-23
-15
-4
10
28
49
71
85
88
83
75
70
65
55
40
26
15
3
-6
-11
-22
-39
-51
-56
-58
-60
-60
-56
-50
-41
-24
2
23
30
29
28
23
18
18
21
19
10
3
0
-1
-6
-13
-22
-29
-32
-32
-33
-33
-28
-18
-9
-6
-5
0
8
18
30
39
44
48
54
61
63
59
51
42
32
20
10
2
-3
-9
-14
-18
-23
-31
-38
-41
-38
-33
-25
-15
-8
-3
0
0
3
10
18
21
21
18
14
8
0
-8
-15
-19
-21
-21
-20
-17
-9
1
8
8
1
-5
-10
-13
-15
-18
-22
-23
-20
-16
-14
-14
-16
-21
-26
-25
-19
-13
-9
-7
-8
-10
-12
-14
-9
2
13
20
27
30
29
29
31
30
28
29
34
36
34
28
20
12
4
0
-2
-3
-3
-1
0
0
-4
-4
0
4
6
8
11
13
15
19
21
21
23
28
32
27
20
19
17
8
-3
-12
-20
-26
-34
-44
-52
-57
-58
-54
-47
-41
-30
-16
-5
5
15
19
20
23
29
33
36
38
38
33
24
17
13
5
-6
-19
-35
-56
-78
-97
-104
-101
-93
-84
-71
-55
-38
-17
7
32
57
77
87
87
82
77
71
60
42
24
10
1
-5
-15
-26
-34
-38
-38
-37
-34
-27
-15
1
22
37
41
42
44
48
48
40
31
26
21
14
8
2
-5
-14
-20
-23
-27
-31
-28
-20
-15
-13
-10
-2
6
14
21
23
20
19
23
29
31
28
24
18
8
-4
-17
-28
-35
-38
-45
-57
-66
-64
-54
-40
-26
-14
-8
-6
-7
-7
-6
-2
9
30
48
52
47
41
32
17
2
-6
-12
-15
-14
-14
-17
-22
-30
-40
-49
-51
-48
-44
-38
-29
-17
-7
3
19
34
43
46
48
53
58
55
49
45
40
34
32
31
27
24
21
20
17
9
0
-7
-8
-9
-13
-16
-15
-11
-5
-1
-2
-7
-11
-13
-17
-22
-23
-22
-20
-16
-12
-11
-14
-18
-20
-22
-23
-20
-15
-11
-7
1
10
17
25
29
25
18
10
4
0
-3
-5
-3
-1
-2
-3
-4
-10
-18
-22
-21
-17
-14
-9
-1
7
16
22
21
16
12
15
19
20
15
13
14
12
7
1
-6
-16
-22
-27
-32
-34
-33
-29
-23
-20
-19
-19
-18
-11
-2
2
3
8
21
32
38
41
45
47
38
23
11
1
-7
-9
-6
-6
-8
-6
-2
0
2
2
1
0
-3
-2
1
4
5
7
13
19
24
24
19
9
-6
-24
-40
-50
-52
-51
-48
-46
-43
-39
-31
-17
1
19
32
43
53
57
54
50
50
52
47
39
31
22
11
0
-6
-13
-22
-32
-42
-51
-62
-69
-71
-64
-52
-40
-26
-11
0
13
26
36
41
41
39
37
34
33
34
32
28
24
20
16
12
8
-1
-16
-23
-23
-22
-23
-23
-20
-14
-9
-9
-12
-14
-9
1
15
28
32
27
19
7
-5
-14
-18
-22
-28
-32
-33
-35
-38
-43
-48
-50
-48
-40
-27
-14
-1
9
17
28
40
49
54
59
64
65
60
50
38
28
22
22
23
17
5
-2
-1
0
-5
-12
-15
-15
-17
-21
-24
-26
-26
-21
-17
-21
-29
-34
-35
-35
-35
-33
-27
-20
-10
0
4
0
-3
-5
-7
-7
-4
0
7
16
27
38
47
58
71
78
73
61
46
27
9
-4
-14
-24
-36
-41
-39
-37
-41
-45
-44
-37
-23
-8
2
5
2
0
-2
-2
0
5
13
21
26
29
28
23
15
4
-5
-13
-20
-26
-36
-44
-46
-44
-38
-29
-18
-7
-1
2
5
9
13
19
30
44
52
51
46
41
33
22
14
9
2
-9
-21
-29
-36
-38
-35
-28
-20
-10
0
8
17
24
29
31
29
30
34
36
32
22
10
1
-7
-15
-18
-18
-15
-11
-14
-30
-43
-47
-45
-39
-33
-29
-23
-12
5
23
31
32
34
37
39
36
28
18
5
-14
-31
-38
-43
-50
-57
-62
-62
-57
-46
-29
-13
0
13
26
39
52
61
65
64
61
56
49
40
28
17
8
-1
-12
-20
-24
-21
-14
-12
-17
-23
-24
-17
-7
3
12
16
16
13
9
8
10
15
25
41
49
43
30
15
0
-10
-16
-22
-31
-41
-46
-48
-49
-51
-53
-51
-46
-41
-35
-29
-20
-9
-1
7
21
36
46
49
47
43
37
28
18
5
-13
-28
-32
-34
-40
-48
-49
-42
-31
-15
4
15
18
24
35
47
55
59
63
66
63
54
44
35
21
6
-4
-11
-16
-22
-34
-47
-52
-50
-45
-44
-45
-43
-36
-29
-20
-10
-3
0
5
14
20
19
17
16
14
7
0
-3
-3
-1
4
8
8
6
4
3
-1
-11
-19
-20
-15
-1
14
27
35
36
30
21
11
2
-4
-9
-15
-20
-19
-16
-11
-5
-1
-2
-2
1
2
0
-2
-3
-4
-3
0
6
11
14
17
23
29
30
26
24
21
18
15
12
6
-4
-17
-26
-30
-31
-27
-16
-2
11
25
35
37
29
21
14
6
0
-1
-3
-8
-17
-27
-36
-43
-48
-51
-57
-64
-65
-58
-51
-46
-41
-32
-23
-14
-1
15
29
38
47
55
60
64
67
65
56
45
39
33
22
14
8
0
-9
-16
-21
-24
-25
-24
-23
-22
-22
-21
-20
-19
-18
-15
-11
-10
-10
-6
-1
4
9
14
21
25
23
18
10
1
-4
-8
-11
-14
-13
-7
0
4
12
24
34
40
40
34
26
22
23
26
23
15
9
5
0
-8
-16
-22
-30
-37
-43
-48
-50
-47
-37
-21
-7
0
5
15
28
35
32
23
14
9
1
-7
-14
-18
-20
-23
-27
-27
-25
-27
-32
-39
-49
-60
-65
-58
-41
-24
-9
5
18
31
47
65
79
82
72
59
49
43
39
37
31
20
6
-8
-18
-21
-24
-33
-44
-48
-44
-37
-28
-17
-6
2
12
29
46
49
44
42
44
41
32
21
13
6
1
1
0
-5
-14
-21
-29
-37
-38
-32
-24
-18
-16
-15
-12
-8
-5
-4
-3
-2
1
8
16
21
23
22
18
11
1
-6
-8
-7
-9
-17
-33
-46
-49
-46
-41
-35
-26
-16
-9
0
7
12
18
24
28
28
28
31
42
55
56
48
37
24
11
1
-9
-20
-30
-37
-40
-39
-33
-26
-19
-13
-5
1
8
18
29
32
30
26
25
27
26
17
1
-15
-26
-31
-35
-42
-51
-53
-47
-38
-31
-28
-23
-14
-7
-1
6
12
19
31
44
53
57
59
63
61
49
35
24
12
2
-5
-14
-24
-32
-34
-29
-22
-12
-2
5
11
17
19
17
10
1
-4
-9
-15
-21
-26
-28
-32
-35
-35
-33
-29
-23
-18
-15
-10
-6
-4
-4
-5
-3
2
10
18
27
34
38
41
44
41
32
27
30
34
29
17
5
-5
-12
-18
-27
-38
-45
-45
-40
-34
-25
-15
-5
0
4
9
14
21
26
27
24
18
12
10
8
0
-8
-17
-27
-31
-29
-33
-44
-54
-54
-46
-33
-17
0
14
25
34
44
51
52
49
47
42
36
32
29
24
17
8
1
-4
-11
-19
-29
-39
-45
-45
-40
-32
-23
-15
-9
-3
5
13
17
19
22
29
33
33
29
25
19
9
0
-7
-14
-21
-23
-23
-24
-20
-10
0
3
2
1
4
10
17
23
24
24
24
24
22
15
6
-1
-6
-12
-24
-37
-45
-47
-43
-41
-42
-43
-37
-28
-22
-21
-18
-11
-2
10
23
31
34
39
48
56
57
54
49
37
16
-1
-10
-16
-25
-31
-34
-34
-33
-26
-14
-7
-6
-7
-6
-6
-3
3
8
12
18
26
33
37
39
39
32
20
8
-3
-21
-35
-36
-32
-33
-38
-39
-34
-27
-21
-13
-6
-1
0
4
10
15
21
27
31
28
23
21
23
21
18
18
21
23
26
28
24
15
4
-9
-23
-33
-36
-35
-36
-38
-38
-35
-32
-27
-20
-16
-13
-7
1
10
12
7
5
6
10
16
22
22
17
12
9
7
6
5
3
0
-2
1
8
12
13
14
12
7
5
8
14
18
15
5
-8
-20
-28
-36
-49
-57
-56
-50
-43
-38
-32
-25
-19
-10
5
18
26
37
55
72
78
72
64
58
48
36
29
22
8
-10
-26
-38
-48
-56
-59
-59
-53
-44
-32
-20
-14
-13
-12
-4
12
31
44
49
50
54
57
51
36
178
31
53
68
77
86
96
99
92
83
73
58
42
31
24
16
9
4
0
-10
-23
-34
-37
-33
-28
-23
-15
-8
-5
-2
0
0
1
6
12
13
14
14
14
10
7
6
5
4
4
2
0
0
1
2
-1
-11
-16
-16
-16
-22
-30
-37
-38
-33
-25
-25
-35
-44
-45
-44
-46
-48
-47
-48
-52
-51
-38
-22
-8
5
19
29
32
31
30
31
36
46
55
61
66
71
76
79
78
72
62
50
33
11
-7
-19
-25
-32
-46
-59
-62
-60
-59
-61
-63
-60
-54
-41
-18
5
26
45
63
78
85
84
78
66
46
26
13
4
-5
-18
-28
-34
-38
-37
-30
-18
-6
3
18
38
50
46
29
9
-2
-6
-8
-12
-17
-17
-14
-15
-17
-19
-32
-56
-76
-92
-105
-114
-111
-94
-71
-46
-19
2
14
17
10
-1
-10
-8
3
19
38
52
61
67
72
72
64
52
43
37
28
16
5
0
4
15
25
31
35
35
31
26
21
15
9
3
-2
-9
-18
-26
-33
-40
-46
-44
-41
-41
-41
-38
-36
-34
-31
-24
-14
-6
5
22
38
48
56
65
73
79
81
76
62
43
29
21
13
2
-11
-24
-34
-39
-43
-51
-61
-66
-65
-62
-56
-47
-37
-25
-11
1
8
7
5
7
9
6
-1
-8
-9
-12
-14
-13
-8
-1
2
1
-1
-6
-11
-12
-9
-3
2
10
15
17
22
29
37
42
46
43
34
22
14
12
9
5
3
2
2
4
5
-1
-12
-19
-21
-24
-30
-32
-31
-29
-29
-30
-30
-25
-15
-6
-2
0
3
11
18
18
16
16
18
21
28
34
32
25
14
1
-10
-19
-23
-23
-22
-19
-12
-1
7
18
33
48
58
57
48
36
22
7
-2
-6
-14
-22
-29
-38
-51
-56
-49
-41
-37
-35
-27
-17
-5
4
5
-1
-6
-2
4
6
3
0
0
1
-2
-4
0
2
7
14
20
22
20
17
13
9
9
12
16
18
17
15
11
10
13
17
18
16
13
11
5
-4
-11
-16
-22
-25
-25
-27
-32
-34
-31
-25
-19
-13
-4
2
6
10
17
28
39
49
56
54
42
26
15
8
0
-10
-15
-18
-24
-37
-57
-75
-84
-82
-69
-54
-41
-26
-7
14
31
40
40
37
38
44
49
51
51
48
39
26
16
4
-10
-21
-25
-32
-43
-51
-51
-46
-40
-34
-25
-18
-14
-12
-12
-14
-14
-7
3
12
19
24
29
30
23
9
0
-2
0
8
16
20
21
21
21
26
40
61
77
81
73
59
42
30
25
21
14
5
-3
-11
-20
-32
-45
-53
-60
-68
-73
-76
-82
-88
-90
-86
-77
-66
-52
-36
-21
-6
10
28
45
58
65
66
63
58
54
49
41
34
28
21
15
11
5
-5
-14
-15
-13
-11
-13
-15
-19
-21
-17
-11
-9
-10
-8
-1
2
2
3
9
17
19
18
22
26
24
15
3
-10
-27
-41
-49
-47
-40
-24
-2
14
23
29
33
40
50
58
58
50
40
34
32
30
26
14
-2
-17
-29
-46
-72
-92
-96
-90
-82
-75
-67
-58
-49
-38
-29
-21
-11
0
14
26
32
34
37
40
36
32
37
42
42
40
36
26
14
4
2
4
8
12
11
4
0
0
1
2
7
11
12
9
8
13
17
19
18
15
12
9
3
-7
-23
-39
-47
-45
-41
-31
-16
-2
4
6
3
-3
-10
-10
0
22
54
78
86
83
65
35
8
-13
-35
-58
-78
-92
-98
-99
-96
-93
-91
-91
-90
-86
-78
-64
-47
-24
5
36
62
77
89
106
120
124
124
121
111
91
68
46
22
0
-14
-22
-27
-31
-31
-27
-23
-18
-12
-6
-1
2
4
2
-4
-10
-8
0
8
11
6
-2
-10
-16
-23
-31
-35
-32
-27
-22
-16
-10
-3
0
1
0
0
0
5
19
29
28
25
30
40
45
42
35
23
8
-5
-14
-22
-31
-38
-42
-47
-53
-62
-68
-67
-60
-44
-25
-7
8
23
34
42
44
41
37
26
12
1
-2
-2
-1
-4
-9
-9
-4
-2
-10
-20
-24
-21
-10
5
17
21
23
29
35
35
28
17
9
4
0
-3
-7
-10
-8
2
17
28
32
30
19
4
-10
-19
-25
-27
-24
-19
-11
0
11
21
26
20
7
-1
-1
0
0
1
4
3
1
-4
-22
-40
-47
-46
-44
-40
-34
-30
-26
-18
-8
0
8
20
37
55
67
68
64
56
45
33
24
17
10
7
6
-1
-12
-21
-23
-18
-15
-17
-24
-34
-40
-43
-46
-46
-37
-22
-9
-7
-12
-15
-13
-10
-7
-3
-2
-3
-3
-4
-7
-7
-1
7
12
13
14
18
23
31
50
69
77
77
76
75
67
53
37
19
-6
-31
-48
-60
-72
-86
-96
-101
-103
-101
-92
-77
-59
-39
-16
7
24
38
48
61
80
96
103
98
84
66
50
37
26
15
6
1
1
1
-7
-22
-32
-35
-35
-35
-34
-31
-25
-17
-8
-1
2
4
5
2
-7
-17
-21
-20
-17
-14
-10
-5
1
12
20
18
11
2
-7
-17
-23
-24
-24
-24
-22
-13
-1
8
17
21
20
12
2
-6
-10
-10
-9
-9
-9
-9
-5
-2
-2
-3
0
6
10
10
10
11
15
24
36
42
36
27
21
15
4
-4
-7
-6
-3
0
4
5
1
-2
-8
-19
-33
-42
-45
-44
-41
-35
-28
-19
-6
7
21
34
46
52
44
32
24
21
21
21
20
18
10
0
-7
-11
-19
-30
-41
-45
-42
-40
-37
-33
-29
-23
-11
5
21
32
39
42
42
45
49
54
54
48
38
29
20
11
-6
-31
-50
-59
-62
-64
-66
-64
-56
-46
-36
-24
-11
0
11
26
43
56
62
66
71
72
61
49
39
20
-2
-18
-26
-31
-36
-46
-55
-61
-65
-67
-68
-63
-52
-40
-27
-9
8
18
20
18
17
20
24
25
26
24
19
15
11
3
-4
-5
1
11
17
23
32
42
43
39
36
34
33
32
30
24
14
5
2
0
-7
-18
-26
-34
-43
-51
-57
-62
-64
-60
-53
-46
-39
-31
-21
-12
-1
10
19
29
43
52
54
52
50
48
43
33
17
2
-7
-14
-19
-27
-36
-36
-26
-14
-5
0
0
2
7
14
22
24
23
24
25
22
17
14
9
-1
-14
-20
-24
-30
-34
-36
-38
-38
-33
-14
13
35
42
38
27
11
-2
-11
-19
-24
-24
-22
-21
-25
-27
-23
-17
-13
-11
-6
1
13
30
46
54
51
40
30
20
12
7
2
-2
-5
-7
-14
-20
-18
-10
-6
-3
0
5
14
15
3
-11
-20
-22
-21
-24
-28
-29
-27
-22
-15
-8
0
8
15
22
27
29
29
34
45
51
47
38
27
16
3
-7
-14
-17
-19
-18
-13
-11
-11
-9
-10
-15
-22
-29
-33
-33
-31
-30
-31
-32
-26
-14
-5
0
0
3
11
19
28
36
35
27
21
17
7
-4
-7
-4
3
16
33
50
66
76
77
65
43
22
0
-30
-59
-78
-88
-95
-100
-100
-93
-81
-68
-47
-23
-6
5
14
20
22
24
28
40
56
64
66
66
68
74
78
76
67
51
31
12
-5
-23
-39
-51
-57
-57
-59
-62
-60
-50
-38
-29
-21
-10
-1
1
5
11
17
21
25
30
33
32
28
26
27
27
21
11
2
-8
-23
-38
-52
-64
-71
-74
-70
-61
-50
-34
-13
7
23
31
36
44
53
60
65
68
71
78
86
87
80
60
34
8
-15
-45
-81
-104
-111
-113
-118
-120
-108
-85
-61
-40
-15
10
34
56
72
81
80
74
66
56
40
23
13
9
9
9
4
0
-3
-5
-6
-4
0
5
12
18
17
5
-12
-28
-40
-47
-51
-50
-42
-30
-25
-26
-26
-18
-5
5
14
19
19
17
16
16
14
15
17
16
12
8
6
9
17
30
43
55
67
69
66
67
64
52
34
15
-2
-32
-81
-125
-148
-158
-159
-151
-132
-104
-71
-32
15
53
70
78
87
97
99
92
82
70
55
41
38
35
21
-1
-21
-35
-49
-65
-82
-95
-101
-94
-73
-47
-26
-12
4
31
58
75
81
74
57
41
31
25
19
13
10
11
16
22
23
19
15
13
12
11
6
-2
-12
-27
-45
-63
-72
-70
-55
-33
-14
0
13
22
24
16
6
-4
-14
-22
-27
-31
-32
-26
-12
4
17
26
40
64
85
91
86
75
58
37
12
-10
-29
-46
-62
-75
-89
-100
-102
-95
-83
-72
-62
-52
-43
-39
-35
-28
-11
14
41
65
87
104
108
103
100
96
85
75
79
94
103
89
56
14
-27
-68
-105
-131
-142
-142
-134
-122
-107
-89
-66
-37
-1
29
47
59
78
106
127
130
117
95
72
57
40
16
-12
-43
-65
-79
-91
-94
-77
-49
-32
-33
-37
-29
-14
-5
-2
0
2
0
-3
-5
-3
7
24
40
54
61
60
53
40
24
4
-21
-46
-62
-62
-42
-18
-2
3
6
7
8
9
12
18
22
21
15
9
3
0
5
15
22
24
23
22
17
6
-13
-38
-60
-70
-65
-56
-43
-23
-1
13
15
2
-3
12
40
68
87
94
93
82
56
19
-17
-44
-63
-79
-99
-114
-116
-107
-84
-47
-10
15
30
38
47
53
55
58
67
79
79
69
59
46
22
-6
-25
-33
-36
-34
-34
-42
-55
-70
-81
-83
-79
-73
-64
-50
-31
-15
0
19
43
64
76
83
91
104
118
126
121
98
61
16
-27
-66
-105
-140
-153
-137
-111
-80
-40
0
30
49
62
72
77
78
76
69
52
28
1
-26
-52
-69
-70
-61
-50
-28
3
27
31
23
7
-14
-30
-35
-32
-23
-7
8
19
23
17
11
7
-1
-18
-36
-45
-43
-41
-39
-34
-21
-1
23
41
42
34
30
32
38
41
38
32
26
19
8
-7
-15
-7
10
25
30
35
43
48
34
4
-20
-25
-13
4
18
19
8
-6
-28
-54
-75
-92
-106
-106
-79
-40
-13
8
39
69
83
79
61
34
2
-28
-53
-70
-78
-70
-46
-13
16
32
33
28
27
27
26
25
23
19
16
13
13
17
22
30
34
32
29
29
30
27
19
7
-4
-11
-19
-30
-39
-41
-41
-41
-39
-32
-22
-17
-20
-24
-26
-22
-6
17
33
39
38
34
30
27
29
30
23
11
0
-10
-24
-41
-53
-52
-45
-40
-36
-27
-11
3
14
23
33
42
46
44
37
32
30
28
21
10
-1
-10
-12
-10
-9
-15
-20
-22
-23
-24
-23
-22
-28
-39
-52
-59
-54
-41
-24
-1
29
52
59
54
50
49
46
37
22
3
-13
-25
-31
-37
-42
-46
-45
-38
-20
3
21
28
30
30
28
27
27
24
18
12
9
13
22
27
26
16
3
-4
-8
-8
-5
-3
-3
-7
-15
-21
-26
-34
-41
-44
-44
-42
-34
-18
3
17
23
27
32
33
29
24
22
20
17
11
0
-9
-17
-22
-28
-28
-22
-12
-6
-3
-1
0
3
9
19
27
30
29
26
24
24
17
5
-3
-8
-12
-17
-27
-38
-43
-39
-28
-17
-12
-10
-9
-4
4
17
29
38
42
41
33
24
19
18
17
10
3
-1
-4
-7
-10
-13
-15
-15
-15
-15
-16
-15
-12
-5
1
7
11
13
16
22
25
22
17
9
3
0
-4
-9
-12
-15
-18
-24
-33
-43
-49
-49
-44
-36
-24
-9
-1
3
10
18
22
23
23
23
20
17
18
20
23
21
15
7
3
5
5
-6
-24
-34
-33
-26
-22
-21
-20
-19
-16
-9
-2
2
10
25
38
42
39
40
44
47
42
33
23
12
-1
-15
-27
-36
-42
-45
-45
-42
-35
-26
-14
-4
4
12
23
33
39
39
37
34
27
20
16
11
0
-18
-35
-43
-44
-47
-51
-52
-47
-38
-26
-10
4
12
15
19
26
30
30
31
32
30
24
19
18
18
15
11
8
5
0
-4
-9
-13
-17
-20
-25
-31
-32
-29
-24
-19
-12
-2
6
15
30
45
52
50
45
38
29
15
-4
-27
-45
-53
-55
-56
-57
-54
-42
-26
-12
-3
2
5
5
7
12
19
26
35
42
44
40
35
29
25
16
1
-11
-17
-20
-20
-20
-21
-21
-18
-14
-11
-9
-6
-2
3
9
12
12
10
12
18
19
16
13
11
9
5
-1
-5
-6
-6
-8
-11
-17
-23
-26
-25
-21
-16
-10
-4
2
8
14
21
30
37
37
37
35
29
23
18
9
0
-6
-11
-14
-15
-18
-26
-34
-36
-34
-31
-29
-25
-20
-16
-9
0
6
13
20
25
25
23
20
17
14
10
3
-4
-8
-12
-15
-18
-23
-26
-26
-24
-22
-18
-13
-8
-4
1
8
13
16
21
27
31
32
31
29
26
22
16
8
-1
-7
-7
-9
-16
-25
-30
-27
-23
-21
-18
-14
-7
0
5
6
4
8
16
22
23
20
17
14
10
2
-6
-13
-20
-26
-29
-27
-21
-10
0
4
1
0
1
7
13
18
19
21
24
23
18
13
10
11
16
21
23
20
11
0
-8
-13
-21
-30
-35
-33
-31
-30
-28
-23
-17
-9
0
6
9
11
15
17
16
15
18
21
20
16
8
1
-2
-3
-7
-16
-24
-29
-30
-32
-35
-37
-35
-29
-20
-6
11
29
47
61
63
53
42
31
21
11
2
-7
-20
-33
-41
-43
-44
-40
-27
-9
4
11
12
11
8
6
6
4
0
0
3
6
5
2
0
0
4
10
17
21
22
22
16
-1
-19
-27
-27
-25
-24
-21
-16
-8
0
13
22
26
29
31
30
24
18
13
11
8
1
-5
-10
-17
-25
-32
-37
-39
-38
-32
-25
-20
-13
-5
2
7
13
20
26
31
34
33
31
28
24
16
8
1
-8
-16
-19
-14
-7
-2
-3
-9
-13
-15
-18
-22
-24
-21
-17
-10
-3
0
3
8
10
7
2
-3
-11
-17
-16
-6
7
19
30
38
36
27
20
17
14
9
5
4
6
9
10
7
2
0
0
2
3
3
0
-3
-5
-6
-6
-7
-5
-1
3
1
-9
-26
-36
-39
-39
-38
-33
-27
-21
-16
-12
-8
-3
6
16
18
14
10
11
13
13
10
6
1
-3
-9
-17
-24
-23
-17
-9
0
8
19
30
39
44
41
34
30
36
46
52
49
41
30
18
7
-4
-15
-21
-22
-22
-25
-34
-47
-56
-58
-57
-57
-57
-54
-46
-35
-23
-14
-8
-2
5
13
21
31
41
48
53
56
56
52
43
28
8
-11
-24
-30
-32
-31
-25
-12
1
17
31
31
20
10
5
5
5
3
0
0
0
-2
-5
-9
-13
-15
-15
-19
-27
-34
-36
-34
-30
-24
-18
-11
-2
10
20
26
36
47
53
52
45
38
32
26
20
12
2
-6
-11
-13
-19
-28
-32
-28
-24
-24
-28
-30
-28
-25
-19
-11
-4
4
15
23
26
25
23
20
12
2
-6
-10
-11
-6
0
5
3
0
-7
-17
-28
-35
-40
-42
-41
-34
-22
-11
0
16
30
36
36
32
27
21
17
16
14
6
-3
-10
-14
-18
-19
-13
-7
-5
-10
-15
-16
-13
-7
1
13
25
41
59
78
89
89
79
65
44
21
4
-5
-13
-24
-36
-45
-49
-48
-45
-46
-52
-54
-52
-49
-47
-42
-34
-25
-11
5
15
17
15
14
14
13
13
13
11
8
6
5
3
3
5
8
9
10
14
23
30
33
31
25
14
9
10
9
3
-3
-7
-8
-9
-14
-19
-21
-17
-14
-14
-18
-18
-13
-9
-5
11
41
69
91
104
99
74
39
8
-15
-39
-59
-73
-85
-98
-111
-119
-115
-104
-95
-88
-81
-70
-58
-49
-40
-24
-4
15
34
50
60
65
68
72
77
78
71
57
43
34
30
28
28
27
26
31
40
44
34
18
10
8
8
8
10
12
14
18
27
33
37
41
44
44
37
27
16
2
-17
-39
-53
-59
-63
-66
-71
-80
-89
-89
-82
-74
-67
-59
-48
-35
-27
-22
-17
-6
16
39
51
53
52
51
44
36
31
28
28
29
28
22
5
-21
-41
-45
-42
-38
-33
-26
-19
-11
0
15
26
32
36
38
33
24
18
20
25
25
13
0
-8
-15
-22
-30
-35
-33
-22
-6
8
18
24
25
21
17
13
8
2
-1
-5
-10
-12
-6
6
18
18
10
-2
-21
-35
-40
-43
-44
-37
-23
-13
-11
-14
-14
-12
-7
2
13
24
36
47
53
55
55
56
57
54
46
35
22
13
9
8
5
-1
-6
-7
-11
-19
-26
-30
-33
-36
-36
-30
-18
-4
7
10
9
8
6
-3
-15
-24
-31
-42
-53
-60
-60
-57
-53
-47
-36
-25
-20
-19
-16
-8
6
22
33
40
48
58
65
67
59
45
34
27
18
3
-11
-20
-21
-20
-25
-36
-43
-39
-31
-21
-7
0
2
2
5
9
9
9
14
20
23
25
26
27
24
19
15
11
7
3
0
-3
-4
0
10
20
24
20
12
3
-1
-2
0
1
6
12
16
15
13
14
21
26
27
24
18
9
-4
-16
-28
-40
-52
-57
-57
-56
-56
-51
-44
-37
-30
-25
-22
-19
-11
-3
1
1
-1
-3
0
9
15
17
20
22
21
19
19
20
17
10
1
-4
-5
0
19
42
56
58
52
39
15
-9
-25
-32
-33
-29
-21
-14
-15
-25
-36
-41
-43
-43
-43
-39
-35
-33
-34
-30
-22
-12
0
17
35
49
58
61
57
43
28
18
17
21
26
27
24
20
17
12
5
-2
-9
-15
-23
-26
-24
-22
-19
-14
-11
-9
-8
-7
-2
1
1
4
11
19
29
40
48
55
63
67
63
54
39
22
6
-4
-14
-22
-24
-23
-21
-19
-21
-29
-33
-30
-26
-30
-44
-54
-53
-49
-43
-35
-29
-27
-28
-32
-35
-32
-22
-10
0
7
11
13
15
17
20
23
28
35
41
42
37
31
31
33
29
21
13
6
-1
-14
-30
-47
-59
-58
-49
-42
-38
-31
-20
-7
3
7
3
-4
-6
0
8
13
20
31
40
39
34
33
31
28
24
20
16
13
11
10
7
5
5
7
7
6
5
4
1
1
2
1
-3
-6
-4
-1
1
6
7
5
1
-5
-17
-31
-38
-37
-32
-29
-28
-26
-22
-15
-3
5
8
10
21
41
55
56
52
43
29
16
6
-3
-17
-32
-40
-46
-54
-62
-65
-61
-52
-42
-31
-22
-20
-20
-15
-4
11
32
55
77
94
102
97
82
70
61
47
30
14
-2
-26
-55
-76
-81
-77
-74
-71
-67
-58
-51
-46
-41
-36
-30
-21
-8
1
6
11
18
25
31
37
46
54
62
66
61
46
33
25
22
22
19
14
8
0
-5
-6
-7
-10
-12
-10
-5
0
3
7
8
8
5
1
0
0
0
-3
-14
-29
-35
-30
-21
-17
-19
-22
-24
-25
-24
-23
-21
-16
-6
3
7
9
12
17
20
17
8
-4
-20
-32
-37
-38
-37
-30
-12
8
22
30
39
53
64
64
55
42
36
35
35
32
25
16
6
-2
-12
-28
-48
-66
-74
-77
-78
-75
-67
-56
-46
-33
-14
3
12
18
24
32
37
39
42
46
49
49
44
37
26
11
-2
-9
-9
-9
-12
-16
-16
-9
0
11
16
17
15
11
6
3
4
5
12
25
33
33
32
33
33
23
8
-8
-25
-41
-51
-56
-60
-64
-65
-58
-44
-28
-12
-1
2
3
2
0
-4
-1
13
32
51
65
68
60
46
31
19
9
0
-10
-22
-41
-62
-74
-77
-76
-76
-74
-65
-54
-43
-31
-19
-10
-1
13
34
53
68
80
86
86
78
69
59
46
33
21
13
7
5
8
11
11
9
3
-5
-9
-5
0
7
14
16
11
0
-12
-23
-25
-19
-9
-5
-11
-23
-29
-28
-26
-28
-32
-36
-40
-46
-52
-52
-41
-25
-6
16
32
37
37
30
13
-4
-13
-17
-26
-42
-56
-62
-63
-59
-51
-44
-39
-31
-14
2
12
16
19
24
33
45
62
79
92
100
102
95
88
85
84
80
72
63
52
39
26
15
-2
-26
-45
-54
-60
-65
-66
-59
-49
-39
-25
-6
8
15
18
17
15
19
32
43
38
17
-5
-25
-44
-62
-76
-87
-94
-98
-100
-98
-93
-81
-66
-54
-46
-40
-32
-23
-13
-1
7
14
20
32
51
67
73
73
71
63
54
45
35
26
28
42
55
60
58
53
48
40
35
34
34
33
29
25
22
18
13
10
6
0
-8
-20
-37
-51
-64
-80
-94
-97
-90
-75
-54
-34
-18
-7
5
21
36
47
52
50
42
30
18
9
2
-3
-8
-15
-24
-31
-33
-31
-32
-35
-37
-36
-34
-35
-37
-34
-24
-11
0
9
14
19
23
24
21
16
11
2
-6
-13
-22
-34
-42
-36
-23
-13
-11
-9
0
12
33
62
86
96
97
94
82
64
48
41
40
37
30
23
20
19
19
18
10
0
-19
-45
-67
-80
-85
-82
-73
-63
-52
-40
-30
-22
-12
0
9
19
29
38
39
36
37
43
45
42
33
16
-5
-20
-22
-18
-18
-25
-29
-22
-13
-12
-19
-24
-25
-24
-23
-23
-23
-17
-11
-9
-10
-12
-15
-21
-27
-28
-27
-24
-17
-9
-2
0
2
10
27
52
75
85
83
76
67
59
52
45
31
12
-1
-11
-18
-23
-26
-29
-32
-34
-33
-30
-30
-35
-45
-55
-54
-41
-27
-16
-6
2
13
26
38
43
41
43
47
50
51
49
43
30
13
-7
-25
-35
-38
-39
-40
-43
-48
-49
-49
-48
-41
-26
-5
14
28
33
30
24
21
25
30
30
26
21
18
13
5
-6
-24
-42
-53
-55
-56
-56
-49
-35
-17
3
34
77
112
126
122
104
79
57
43
29
11
-10
-27
-38
-43
-48
-58
-71
-78
-84
-91
-99
-103
-97
-85
-63
-30
7
39
61
76
88
90
87
87
93
97
87
67
43
19
-4
-23
-34
-42
-50
-57
-70
-89
-106
-115
-113
-104
-90
-68
-41
-18
0
14
28
46
72
97
113
117
115
109
96
80
62
42
21
4
-9
-24
-40
-53
-62
-67
-67
-62
-48
-28
-8
11
30
40
42
40
36
29
20
7
-5
-17
-27
-34
-38
-43
-50
-55
-56
-55
-50
-35
-10
11
26
46
74
98
100
87
73
59
46
38
35
26
7
-16
-37
-51
-60
-73
-93
-104
-103
-101
-103
-104
-90
-54
2
61
92
92
79
65
54
47
43
40
37
27
11
-1
-10
-21
-37
-53
-65
-72
-72
-65
-53
-39
-23
-1
27
53
72
85
94
98
97
99
102
96
80
62
46
31
12
-6
-19
-26
-29
-30
-33
-38
-43
-50
-64
-87
-104
-108
-106
-102
-97
-88
-75
-58
-37
-18
-5
5
16
24
25
31
45
62
75
80
75
62
48
37
27
18
13
15
24
31
34
32
23
7
-9
-22
-32
-38
-36
-28
-20
-16
-15
-19
-23
-23
-19
-20
-25
-26
-26
-27
-28
-25
-16
-4
8
21
37
53
66
78
86
81
67
58
57
57
49
36
26
18
15
17
17
7
-11
-36
-66
-88
-96
-91
-78
-67
-62
-63
-67
-69
-66
-58
-49
-41
-29
-11
0
2
1
6
19
34
44
45
42
42
46
51
51
44
30
18
14
13
14
11
6
5
10
17
25
34
41
44
40
29
16
5
-1
-9
-23
-42
-58
-69
-78
-88
-92
-86
-78
-67
-52
-35
-15
7
32
50
58
60
59
58
56
52
47
44
40
34
27
17
8
2
0
-1
-5
-13
-24
-30
-27
-23
-21
-18
-13
-7
0
1
0
0
1
3
4
6
12
20
25
24
11
-5
-12
-9
-8
-16
-26
-31
-32
-32
-35
-36
-33
-28
-20
-10
-2
0
2
9
19
24
25
25
24
24
24
24
21
21
23
24
20
11
2
-1
2
9
17
26
33
32
27
22
13
0
-11
-21
-33
-48
-63
-71
-66
-54
-45
-45
-44
-37
-27
-21
-21
-22
-17
-9
0
14
25
31
34
37
39
38
37
37
38
38
37
43
56
70
75
66
51
37
19
-7
-37
-61
-76
-88
-96
-99
-94
-83
-73
-62
-50
-37
-22
1
38
70
86
93
93
87
73
54
35
13
-9
-27
-37
-47
-60
-71
-73
-65
-55
-40
-22
-6
6
19
34
47
55
60
66
69
69
66
59
48
33
19
7
-2
-13
-26
-39
-48
-50
-46
-39
-31
-25
-21
-16
-8
0
4
4
6
19
36
45
44
34
15
-3
-17
-27
-40
-53
-60
-60
-60
-63
-63
-57
-48
-41
-31
-13
7
26
38
44
48
54
62
72
78
80
76
68
61
57
51
35
12
-13
-41
-72
-95
-103
-101
-99
-98
-95
-86
-76
-67
-53
-35
-18
-1
25
62
88
97
98
95
90
84
79
74
66
56
45
29
10
-3
-7
-10
-16
-20
-23
-27
-34
-38
-41
-45
-50
-50
-45
-41
-35
-25
-14
-7
-3
1
8
12
17
23
23
16
10
11
13
13
10
10
14
20
27
33
36
39
40
35
23
8
-5
-15
-25
-36
-47
-56
-65
-73
-78
-78
-77
-69
-54
-37
-22
-9
8
30
48
57
64
71
72
67
60
50
39
29
22
15
9
5
5
9
16
20
9
-18
-46
-58
-59
-60
-64
-66
-64
-62
-55
-44
-33
-22
-8
7
24
38
47
53
59
68
77
82
83
77
59
33
10
-8
-23
-33
-34
-25
-16
-17
-23
-24
-20
-19
-18
-14
-9
-8
-13
-20
-23
-25
-21
-11
-3
2
7
10
11
5
-4
-6
0
7
12
12
11
14
19
26
34
39
42
44
40
27
10
-1
-12
-25
-40
-54
-62
-65
-66
-65
-63
-58
-45
-26
-7
2
8
17
25
34
44
51
56
60
62
56
42
28
19
13
10
7
4
-3
-15
-28
-37
-45
-56
-68
-71
-67
-66
-63
-53
-39
-22
-4
20
56
86
98
95
86
79
76
74
73
75
66
39
6
-23
-56
-94
-121
-126
-117
-106
-97
-86
-70
-50
-28
-1
19
33
47
65
82
88
85
78
68
58
49
38
24
11
0
-9
-18
-27
-30
-28
-26
-24
-20
-15
-9
-5
-1
1
4
7
11
15
18
19
18
13
6
0
-13
-31
-43
-46
-47
-51
-58
-60
-53
-38
-19
-4
2
3
2
4
9
14
19
27
32
31
28
29
30
35
44
48
40
29
19
7
-4
-9
-2
6
1
-16
-33
-44
-46
-45
-41
-35
-31
-28
-22
-17
-12
-5
7
25
39
46
45
38
31
29
30
25
14
1
-6
-10
-13
-14
-13
-13
-16
-17
-10
11
42
68
82
74
47
18
0
-15
-33
-54
-71
-81
-88
-91
-87
-76
-61
-42
-18
2
18
28
35
42
49
55
56
52
47
43
39
35
37
45
48
37
22
14
15
17
11
-8
-36
-62
-77
-83
-89
-94
-89
-69
-36
0
22
25
18
14
16
21
29
37
43
46
47
40
23
0
-15
-28
-47
-63
-66
-59
-46
-29
-13
1
11
21
37
55
64
62
55
46
34
25
20
23
29
30
18
-2
-29
-56
-74
-83
-84
-78
-67
-58
-52
-40
-20
4
23
33
36
31
23
21
26
33
41
55
73
85
91
83
53
16
-12
-35
-56
-79
-96
-98
-89
-73
-53
-35
-24
-18
-12
-2
10
24
41
62
81
85
78
70
68
69
59
37
13
-1
0
10
19
19
1
-34
-67
-85
-93
-94
-84
-64
-45
-37
-34
-23
0
25
44
48
40
24
8
-5
-16
-24
-22
-13
-9
-11
-10
-2
5
7
2
-4
-8
-8
-2
5
9
8
16
31
41
36
28
30
38
45
52
60
58
44
16
-25
-61
-75
-65
-49
-39
-33
-24
-16
-16
-24
-35
-49
-62
-68
-71
-68
-53
-12
46
91
106
99
75
46
38
56
78
80
65
52
46
40
29
16
0
-21
-45
-70
-97
-119
-133
-142
-143
-129
-96
-54
-21
7
46
88
119
134
133
118
93
65
42
26
14
5
-2
-10
-18
-21
-10
4
6
-8
-29
-48
-64
-74
-72
-54
-28
-3
13
20
22
19
15
18
25
29
28
25
20
18
19
16
6
-7
-32
-64
-87
-94
-91
-66
-17
39
89
126
135
109
66
29
0
-30
-71
-105
-119
-121
-118
-111
-94
-64
-26
17
59
84
94
101
101
87
59
28
6
-8
-23
-25
-11
9
27
37
33
20
13
16
16
5
-11
-25
-43
-67
-79
-68
-42
-17
-4
-1
-3
-3
6
26
40
42
38
34
35
41
48
48
35
18
6
0
-7
-16
-24
-27
-28
-29
-25
-18
-7
8
28
43
42
26
8
-8
-19
-16
-10
-17
-35
-54
-67
-73
-74
-64
-39
-17
-13
-20
-27
-20
8
44
61
58
51
43
36
38
46
54
63
73
73
59
43
31
15
-16
-69
-129
-166
-169
-143
-85
-10
40
56
54
42
25
7
-4
-11
-15
-18
-15
-2
18
41
58
61
54
46
40
31
20
11
4
-2
-7
-1
11
20
16
6
-3
-10
-18
-23
-17
-4
2
-3
-15
-24
-25
-17
-8
-6
-11
-18
-22
-24
-30
-43
-50
-48
-43
-28
0
30
50
62
62
49
28
7
-14
-37
-54
-55
-37
-8
25
50
53
41
30
22
10
-2
-12
-18
-22
-24
-22
-10
4
13
16
18
18
16
14
11
5
-1
-7
-9
-7
3
19
33
37
30
14
-3
-23
-44
-60
-68
-68
-58
-41
-19
4
26
44
58
66
70
74
77
77
67
46
19
-7
-35
-57
-68
-72
-76
-85
-93
-91
-80
-61
-35
-12
4
16
27
39
48
54
57
57
56
51
42
30
18
5
-6
-16
-24
-25
-22
-23
-30
-40
-42
-29
-12
0
4
7
11
13
15
19
30
45
53
47
34
18
3
-5
-7
-6
-4
-6
-11
-12
-11
-15
-24
-30
-27
-20
-14
-10
-7
-4
-1
1
2
1
4
11
15
12
4
-1
-3
-2
2
7
11
13
12
6
-3
-12
-16
-17
-18
-20
-19
-16
-14
-11
-4
7
18
26
34
37
32
23
12
0
-11
-16
-17
-20
-24
-21
-14
-8
-6
-7
-7
-5
-3
0
8
19
28
33
32
26
19
14
12
8
4
3
4
0
-7
-17
-21
-18
-15
-16
-27
-41
-47
-47
-42
-32
-15
3
18
23
20
14
7
0
-7
-13
-18
-22
-15
4
24
38
46
44
34
23
13
3
-6
-11
-10
-7
-5
-1
4
8
11
15
16
12
8
8
8
5
1
2
9
14
14
5
-8
-19
-22
-24
-31
-39
-40
-34
-26
-20
-15
-10
-4
0
6
11
15
21
31
41
43
37
28
22
18
17
17
11
-1
-17
-27
-32
-36
-39
-37
-31
-24
-16
-8
0
7
11
15
16
18
23
27
26
23
18
11
5
3
6
7
1
-6
-14
-22
-30
-33
-29
-21
-12
-6
-4
-7
-10
-10
-7
-7
-7
0
11
20
20
19
26
32
33
27
18
11
9
14
13
3
-9
-25
-42
-54
-59
-59
-56
-49
-40
-31
-26
-15
5
26
36
39
43
45
42
38
36
31
20
8
1
-3
-7
-10
-8
-1
3
4
4
5
8
10
12
14
15
17
20
21
16
7
2
-2
-8
-15
-22
-27
-25
-20
-24
-33
-38
-36
-28
-20
-11
-4
2
7
13
20
25
28
31
33
32
28
23
17
11
4
0
-5
-15
-29
-40
-44
-46
-43
-36
-29
-26
-22
-14
-2
8
17
24
32
44
56
64
65
57
41
25
11
0
-11
-20
-28
-32
-32
-36
-42
-42
-38
-31
-23
-17
-11
-6
0
9
19
24
23
20
18
17
16
13
8
0
-9
-9
-6
-8
-15
-18
-16
-14
-15
-16
-17
-18
-22
-23
-19
-11
-3
0
3
13
30
46
55
54
48
41
34
25
14
3
-5
-8
-5
-6
-14
-23
-26
-25
-19
-11
-5
-2
0
1
5
9
10
14
19
24
25
27
28
24
13
2
-8
-20
-29
-32
-35
-43
-50
-53
-47
-37
-30
-25
-20
-17
-12
-4
0
5
14
25
34
39
38
33
27
21
16
10
0
-10
-11
-10
-9
-5
2
7
6
7
16
26
28
24
17
9
2
2
7
12
13
10
6
4
2
4
4
0
-6
-10
-16
-25
-32
-34
-32
-31
-32
-34
-33
-29
-23
-15
-11
-10
-5
5
17
25
28
28
25
20
19
22
23
16
11
7
-1
-14
-25
-28
-26
-22
-17
-13
-12
-12
-7
0
9
19
29
36
36
32
30
29
25
18
7
-4
-13
-15
-21
-34
-41
-41
-36
-31
-24
-15
-4
5
15
22
27
34
46
56
56
45
33
22
9
-4
-12
-13
-19
-37
-51
-52
-48
-45
-41
-36
-28
-16
-2
8
14
14
14
14
14
17
22
24
17
4
-3
-1
2
10
20
26
28
30
27
19
8
0
-8
-22
-41
-52
-51
-45
-39
-30
-19
-5
9
24
38
45
46
43
42
45
46
37
20
0
-20
-35
-46
-54
-59
-61
-58
-49
-38
-27
-16
-7
-1
1
5
15
27
35
38
38
38
36
34
32
29
18
8
6
11
12
4
-5
-13
-20
-26
-32
-34
-33
-33
-33
-32
-30
-26
-17
-3
8
14
20
28
33
34
33
27
18
10
4
-4
-11
-12
-7
0
5
3
-2
-8
-12
-11
-8
-7
-6
1
11
20
28
40
56
62
54
41
24
0
-18
-29
-37
-51
-67
-75
-70
-64
-61
-60
-58
-51
-40
-24
-3
16
31
43
55
68
74
75
73
65
52
33
13
-2
-13
-23
-33
-40
-41
-39
-34
-24
-14
-10
-14
-17
-17
-15
-9
2
15
22
23
27
35
38
36
33
26
12
2
-1
-4
-9
-14
-14
-9
0
9
19
24
27
30
30
22
13
7
3
-1
-8
-10
-5
1
1
-8
-24
-42
-56
-71
-90
-101
-96
-82
-68
-54
-40
-26
-12
4
22
34
39
44
62
95
117
118
109
93
70
45
26
9
-12
-33
-45
-49
-53
-59
-64
-65
-60
-51
-38
-21
-6
5
16
23
26
30
36
38
36
33
30
26
24
26
30
30
31
32
25
5
-16
-27
-31
-35
-42
-44
-42
-39
-38
-36
-32
-27
-20
-11
-2
2
4
7
7
6
4
0
-4
-8
-5
1
9
16
19
18
12
8
12
24
42
58
65
59
45
31
25
24
20
9
-7
-20
-28
-37
-53
-73
-89
-94
-96
-99
-100
-94
-82
-68
-52
-27
-3
17
40
66
88
97
98
96
95
96
99
98
94
87
78
60
33
3
-28
-62
-89
-102
-104
-102
-101
-99
-92
-81
-69
-57
-46
-37
-27
-7
24
50
62
66
68
68
65
61
58
53
46
42
39
36
30
24
18
12
7
6
9
9
4
-3
-14
-26
-31
-29
-29
-34
-46
-55
-59
-59
-57
-49
-40
-29
-18
-6
4
11
16
20
19
13
7
5
6
8
13
23
33
45
56
62
57
48
39
29
15
5
0
-4
-7
-5
-6
-12
-22
-32
-38
-39
-39
-39
-44
-55
-65
-67
-66
-62
-54
-39
-23
-10
2
15
23
26
27
34
47
57
57
51
38
23
16
15
12
4
-5
-12
-12
-8
-2
-1
-6
-11
-14
-15
-17
-19
-17
-12
-8
-4
2
5
3
4
4
-1
-10
-13
-6
4
15
22
28
37
53
68
72
66
62
65
68
64
53
33
10
-9
-24
-42
-64
-78
-79
-76
-76
-79
-80
-79
-79
-79
-75
-65
-49
-31
-11
8
24
37
52
71
89
100
101
102
102
92
70
40
15
-2
-19
-38
-51
-55
-55
-58
-62
-60
-53
-44
-30
-15
-2
11
25
39
47
46
38
29
16
-1
-16
-24
-28
-31
-31
-28
-25
-26
-27
-24
-20
-16
-13
-13
-15
-15
-8
3
15
26
38
47
50
48
44
36
24
10
-3
-18
-28
-30
-28
-24
-16
-2
13
22
22
18
13
7
6
13
22
30
37
43
42
31
14
-4
-23
-37
-42
-36
-31
-30
-29
-21
-8
1
12
27
43
54
62
63
57
45
27
8
-12
-35
-51
-54
-54
-57
-63
-70
-77
-85
-92
-98
-99
-94
-87
-77
-63
-43
-21
8
45
74
91
101
108
112
111
105
100
98
95
86
70
51
30
9
-5
-10
-14
-22
-32
-37
-34
-27
-18
-9
-5
-7
-10
-11
-11
-10
-11
-16
-24
-26
-19
-9
-5
-6
-6
-4
-6
-17
-32
-44
-50
-51
-50
-49
-48
-42
-32
-22
-17
-12
-1
10
18
20
17
12
11
16
23
25
22
26
40
56
66
68
63
51
31
9
-9
-20
-22
-16
-14
-18
-21
-22
-24
-27
-26
-20
-14
-5
12
29
36
36
33
32
30
22
11
-3
-21
-31
-31
-30
-26
-16
-1
15
31
43
46
40
29
18
11
10
12
12
10
5
-7
-18
-19
-15
-12
-11
-13
-21
-30
-42
-60
-78
-83
-73
-50
-18
8
22
25
22
18
15
11
8
7
0
-11
-21
-29
-31
-28
-19
-9
-1
0
0
-2
-11
-25
-37
-45
-44
-35
-26
-19
-13
-3
15
37
58
79
99
114
119
116
111
107
97
82
65
47
29
14
6
-5
-26
-45
-53
-54
-54
-55
-54
-49
-43
-35
-25
-22
-23
-21
-15
-7
-3
-3
-3
0
0
-3
-9
-20
-34
-42
-45
-45
-38
-20
1
18
33
50
66
73
65
50
32
15
6
3
0
-8
-18
-28
-35
-43
-52
-66
-79
-84
-79
-73
-70
-67
-56
-41
-21
-1
15
24
28
32
41
51
57
63
68
72
70
65
61
61
65
64
54
38
19
-1
-25
-43
-53
-54
-47
-34
-18
-4
6
9
7
4
0
-6
-12
-14
-12
-10
-8
-5
-1
5
11
12
5
-3
-8
-13
-22
-33
-36
-31
-25
-20
-13
-6
0
6
11
17
24
31
39
44
46
47
51
54
49
38
28
20
14
10
2
-12
-26
-32
-32
-33
-34
-32
-29
-26
-25
-24
-23
-23
-20
-14
-11
-11
-13
-13
-10
-10
-12
-14
-15
-16
-12
-9
-12
-19
-25
-25
-24
-23
-21
-16
-8
3
17
28
37
46
56
61
53
35
20
14
14
11
3
-6
-13
-13
-9
-10
-15
-17
-20
-29
-44
-51
-43
-31
-14
6
27
44
64
88
106
106
94
81
67
50
35
23
10
-8
-31
-51
-65
-74
-80
-84
-86
-88
-89
-86
-83
-77
-68
-61
-50
-29
-3
20
37
52
67
77
78
74
69
65
58
47
32
13
-5
-16
-17
-14
-13
-10
-6
-1
0
0
1
2
7
17
26
29
28
29
34
38
37
28
16
4
-5
-16
-26
-38
-48
-53
-53
-47
-33
-18
-5
5
12
15
13
8
3
-2
-9
-17
-24
-27
-25
-22
-22
-28
-39
-43
-33
-18
0
19
35
38
32
24
17
13
12
13
13
10
9
11
11
7
1
-2
-2
-5
-9
-8
-4
-2
1
6
9
8
8
7
4
-2
-5
-2
3
8
13
14
14
15
21
27
26
20
13
6
-1
-8
-11
-14
-16
-16
-16
-21
-30
-36
-36
-32
-27
-23
-17
-9
-2
3
8
6
4
7
12
11
1
-11
-23
-32
-37
-35
-27
-14
4
22
31
29
21
16
15
16
20
22
22
22
27
34
35
32
32
32
31
29
31
34
30
13
-5
-21
-32
-41
-49
-54
-55
-51
-46
-44
-42
-34
-21
-9
-3
0
5
12
22
30
34
33
31
28
23
15
4
-4
-10
-14
-16
-19
-27
-41
-54
-52
-38
-22
-8
1
6
10
20
36
52
62
66
63
55
47
44
46
43
24
-7
-38
-60
-73
-80
-88
-95
-93
-84
-71
-57
-42
-27
-11
7
27
38
42
45
52
61
63
58
55
57
60
60
57
56
53
48
39
28
15
3
-1
1
3
2
-3
-15
-28
-35
-39
-48
-61
-67
-64
-60
-61
-62
-58
-48
-36
-20
-2
11
17
20
20
14
4
-1
1
8
17
21
21
22
25
34
39
40
40
39
32
19
3
-10
-25
-41
-52
-52
-49
-49
-48
-48
-54
-61
-65
-62
-53
-43
-35
-26
-13
1
15
29
48
75
99
114
118
111
90
66
47
34
25
16
11
12
12
1
-14
-23
-17
-7
1
8
7
-1
-11
-15
-18
-19
-16
-6
3
4
0
-4
-3
-1
0
0
-4
-11
-15
-16
-20
-29
-41
-57
-73
-80
-75
-68
-61
-53
-41
-25
-9
5
23
35
36
32
27
24
23
24
31
42
53
58
55
48
36
21
12
9
6
2
-3
-10
-12
-7
3
11
12
5
-7
-26
-46
-57
-53
-43
-30
-12
2
5
6
9
7
0
-6
-7
-4
-4
-9
-11
-7
0
10
21
29
38
54
79
94
90
74
51
24
6
2
3
-3
-21
-41
-58
-68
-71
-70
-66
-58
-49
-38
-22
-5
10
24
40
61
78
83
77
61
42
24
8
-7
-23
-38
-53
-66
-72
-76
-82
-84
-77
-65
-50
-35
-21
-10
1
17
30
37
40
46
49
46
42
40
37
30
18
5
-8
-22
-27
-20
-12
-9
-8
-3
3
5
2
0
-1
-3
-2
-1
-3
-3
8
23
34
39
44
53
64
66
59
42
19
1
-9
-18
-20
-10
0
0
-9
-19
-27
-32
-37
-43
-51
-64
-72
-68
-57
-47
-38
-26
-15
-10
-6
2
11
19
30
42
44
32
17
8
5
4
4
3
0
-6
-12
-15
-15
-14
-13
-12
-9
-2
8
17
26
40
60
85
105
114
106
82
50
14
-20
-45
-59
-69
-78
-83
-84
-81
-76
-75
-79
-77
-65
-50
-35
-20
-5
7
22
44
72
94
105
104
88
64
47
39
32
21
6
-5
-13
-20
-26
-29
-28
-25
-18
-9
-5
-2
2
11
21
33
55
81
95
85
58
25
-7
-39
-70
-89
-95
-94
-90
-87
-83
-77
-67
-60
-54
-49
-42
-34
-21
5
35
52
55
51
45
39
38
40
34
16
0
-1
6
14
19
16
8
-3
-10
-9
-8
-8
-6
0
6
10
15
24
36
48
55
55
47
34
17
0
-15
-22
-22
-20
-19
-17
-12
-7
-7
-12
-13
-11
-7
2
16
27
31
26
18
11
8
8
6
-4
-18
-26
-30
-39
-50
-55
-52
-45
-37
-33
-34
-40
-45
-46
-41
-32
-21
-9
2
9
16
23
31
38
46
58
69
71
63
47
31
18
8
0
-9
-19
-25
-25
-16
2
21
33
35
27
15
2
-10
-19
-24
-23
-16
-5
4
8
0
-14
-27
-42
-54
-52
-40
-28
-20
-8
10
27
39
45
40
28
20
16
15
16
21
27
29
26
18
7
-4
-13
-16
-14
-10
-1
9
19
24
23
18
11
3
-8
-22
-34
-42
-44
-43
-42
-45
-47
-44
-37
-29
-23
-14
-5
3
11
20
27
36
53
66
67
61
56
51
42
30
22
10
-7
-20
-22
-20
-25
-40
-58
-70
-78
-77
-64
-48
-36
-25
-15
-9
-4
2
11
18
25
34
44
54
63
69
64
51
39
31
22
12
5
2
-3
-14
-22
-24
-23
-25
-28
-32
-35
-38
-35
-25
-14
-6
0
7
16
24
29
28
26
26
29
32
31
31
37
46
47
42
29
7
-12
-20
-23
-29
-40
-47
-46
-47
-57
-74
-86
-88
-83
-74
-60
-46
-27
-5
17
36
48
56
59
57
48
40
36
35
32
24
11
-2
-11
-15
-13
-8
-3
2
7
13
20
24
27
33
45
53
51
41
30
20
5
-11
-23
-32
-44
-53
-56
-60
-63
-62
-53
-41
-32
-23
-10
4
15
23
26
25
24
27
30
30
29
25
19
13
14
21
26
20
10
7
6
3
-2
-7
-15
-24
-30
-34
-39
-41
-40
-37
-35
-31
-23
-10
3
17
41
73
90
84
65
40
13
-2
-9
-19
-38
-61
-74
-76
-74
-67
-54
-40
-25
-5
23
57
84
96
95
80
57
36
20
8
-2
-10
-16
-21
-24
-27
-35
-42
-38
-25
-6
12
22
22
16
3
-12
-27
-35
-37
-35
-28
-19
-9
0
4
2
0
5
15
23
31
33
25
11
-3
-17
-25
-29
-29
-27
-22
-16
-7
3
11
19
28
35
40
43
47
46
38
27
16
4
-5
-9
-10
-14
-21
-24
-18
-12
-10
-11
-12
-10
-4
3
10
11
11
11
9
2
-7
-15
-21
-26
-32
-33
-29
-23
-14
-1
9
18
26
36
45
46
37
26
12
-4
-15
-18
-19
-20
-22
-24
-27
-34
-42
-46
-42
-30
-13
0
3
0
-1
-4
-10
-15
-12
0
12
26
40
53
64
73
78
81
77
71
61
47
31
19
10
-3
-31
-64
-87
-95
-96
-94
-90
-85
-79
-71
-60
-44
-28
-16
-5
6
19
30
37
46
62
76
82
81
77
72
64
57
54
50
38
22
9
-3
-21
-43
-57
-57
-51
-45
-42
-37
-26
-11
0
-2
-10
-12
-7
-2
-2
-4
-6
-9
-13
-10
-3
0
2
19
58
99
115
103
69
21
-22
-54
-79
-107
-137
-156
-159
-151
-130
-95
-56
-21
11
45
77
94
95
90
80
67
57
50
41
35
35
34
32
31
27
21
17
16
20
30
47
59
61
51
30
4
-16
-31
-43
-57
-71
-84
-94
-95
-94
-92
-80
-61
-40
-21
-6
3
10
16
24
33
36
37
41
46
49
46
41
37
35
33
31
31
26
15
4
-8
-20
-30
-35
-37
-35
-32
-27
-20
-14
-12
-12
-17
-20
-14
-2
7
8
7
8
9
10
11
11
7
8
15
19
10
-3
-11
-8
0
3
4
5
7
8
5
-2
-9
-9
0
12
23
28
24
11
-9
-34
-50
-57
-65
-72
-68
-55
-35
-13
11
40
65
81
86
76
54
36
26
13
-1
-13
-22
-26
-28
-26
-17
-4
5
13
18
10
-4
-14
-19
-23
-25
-22
-17
-12
-4
10
26
37
42
44
44
45
54
65
66
48
21
-2
-24
-45
-65
-79
-87
-89
-92
-100
-105
-100
-84
-56
-17
18
40
49
53
56
59
61
65
78
95
105
107
102
85
50
12
-16
-37
-62
-89
-103
-101
-88
-70
-54
-39
-25
-13
-8
-12
-17
-18
-16
-10
3
22
37
46
53
58
59
55
48
41
31
18
7
-5
-21
-35
-40
-39
-29
-10
8
21
27
28
31
31
25
16
1
-21
-44
-56
-63
-65
-56
-37
-16
0
6
7
6
0
-4
0
13
20
21
30
47
64
75
84
89
88
80
61
29
-11
-59
-109
-142
-151
-145
-130
-114
-100
-83
-63
-49
-44
-40
-31
-18
2
33
62
79
86
88
91
91
93
100
104
95
75
55
37
22
11
6
4
0
-5
-14
-29
-44
-52
-57
-61
-62
-57
-48
-33
-13
0
2
0
-1
4
12
21
33
44
44
31
16
7
4
0
-6
-5
0
16
34
40
28
4
-24
-52
-73
-89
-103
-122
-142
-145
-124
-88
-37
24
76
103
109
104
95
82
64
43
22
0
-16
-22
-16
0
27
55
73
79
71
53
26
0
-19
-18
0
11
7
0
1
7
6
-3
-21
-51
-88
-110
-113
-111
-109
-97
-77
-57
-33
3
42
71
91
102
102
93
84
77
66
49
35
24
9
-9
-20
-17
-12
-13
-12
-2
9
22
29
18
-7
-33
-48
-59
-80
-107
-120
-113
-98
-81
-60
-31
2
36
66
85
87
80
76
72
66
59
48
31
10
-12
-32
-49
-61
-56
-36
-17
-5
7
27
46
53
46
31
10
-8
-19
-22
-19
-2
27
44
42
36
25
2
-22
-33
-36
-41
-47
-51
-50
-49
-41
-26
-9
2
11
19
26
32
34
32
28
20
11
5
0
-4
-3
5
13
18
17
11
2
-5
-15
-37
-68
-86
-83
-71
-52
-20
20
59
88
92
70
42
20
2
-21
-52
-74
-80
-79
-75
-53
-15
21
44
49
45
39
35
32
28
21
15
13
17
24
33
43
53
60
57
42
20
1
-15
-32
-47
-53
-48
-37
-28
-27
-27
-20
-12
-4
4
11
14
14
20
34
43
45
45
42
31
13
-7
-26
-46
-70
-88
-91
-83
-64
-40
-21
-10
-3
4
10
15
22
30
35
39
43
46
41
31
22
19
14
3
-5
-8
-6
-2
2
3
-1
-6
-8
-12
-22
-35
-44
-50
-50
-43
-29
-13
6
33
60
72
68
62
51
29
1
-20
-36
-51
-66
-69
-55
-31
0
35
53
45
26
6
-10
-17
-16
-12
-11
-13
-8
6
22
34
43
50
52
47
35
20
4
-8
-16
-24
-36
-43
-44
-43
-40
-34
-23
-10
0
3
-2
-10
-13
-7
4
17
27
35
37
31
21
15
13
11
10
9
5
-3
-14
-22
-25
-25
-23
-21
-18
-13
-7
-1
3
10
23
41
51
49
42
34
25
15
3
-9
-28
-44
-52
-56
-61
-63
-53
-33
-15
-7
-11
-20
-26
-29
-26
-16
0
18
36
50
57
58
55
51
48
45
41
36
33
28
20
9
-2
-13
-26
-43
-57
-64
-64
-55
-41
-26
-9
10
29
41
43
40
36
30
21
11
5
1
-1
-4
-9
-15
-24
-36
-42
-45
-48
-50
-46
-36
-26
-15
-1
16
30
39
46
49
47
42
39
35
28
17
7
2
-2
-10
-22
-34
-42
-43
-37
-28
-16
1
21
38
48
49
38
21
3
-12
-23
-29
-30
-30
-32
-33
-30
-22
-14
-8
-5
-2
0
5
17
29
35
34
29
22
17
15
18
22
26
31
36
38
34
25
15
6
-4
-20
-36
-48
-54
-57
-58
-56
-49
-37
-22
-10
-1
7
15
18
18
17
15
12
13
17
17
11
5
2
-2
-10
-14
-14
-14
-16
-13
-6
-2
-1
1
8
15
15
12
9
4
0
0
0
-2
-1
3
9
12
14
17
18
17
14
12
9
-1
-13
-18
-24
-31
-34
-30
-22
-16
-13
-10
-7
-4
-1
6
13
14
16
21
25
24
23
20
15
5
-2
-5
-10
-18
-21
-23
-29
-34
-32
-26
-20
-17
-14
-11
-8
0
11
17
20
26
31
32
29
26
25
24
23
23
23
19
13
9
1
-9
-19
-25
-28
-28
-25
-20
-15
-9
-2
1
4
9
17
26
30
27
22
18
18
22
23
18
8
-3
-17
-38
-56
-68
-74
-78
-79
-74
-62
-48
-31
-9
10
24
35
47
59
63
62
60
56
46
33
22
16
13
13
15
15
7
-4
-14
-18
-17
-18
-22
-26
-23
-16
-6
3
11
18
25
28
25
18
10
0
-15
-29
-35
-37
-37
-35
-33
-30
-22
-12
-8
-16
-26
-30
-27
-20
-8
4
10
16
28
42
50
52
51
46
35
23
16
17
16
8
-2
-10
-18
-24
-24
-21
-17
-14
-9
-5
-1
2
4
4
5
11
20
24
21
14
11
13
13
8
-1
-13
-23
-30
-38
-47
-49
-42
-33
-23
-13
-5
0
6
18
35
44
43
39
32
24
18
14
11
9
6
2
0
0
-2
-6
-10
-16
-23
-28
-35
-43
-46
-43
-36
-27
-15
-2
5
11
20
31
38
40
44
53
61
63
57
44
22
-1
-18
-29
-45
-64
-72
-69
-64
-58
-48
-36
-21
-7
7
19
26
29
33
35
35
35
35
31
25
21
20
18
11
0
-19
-39
-51
-55
-53
-50
-44
-36
-27
-14
0
13
21
29
39
49
51
43
34
26
18
10
7
6
6
3
0
0
-6
-15
-21
-22
-19
-17
-13
-6
0
2
3
5
10
17
25
28
26
18
10
4
0
-5
-10
-17
-24
-29
-33
-38
-39
-32
-23
-17
-11
-4
4
14
24
29
27
21
20
24
30
29
22
16
16
19
17
8
-3
-19
-35
-46
-52
-58
-60
-56
-48
-39
-31
-26
-21
-15
-8
-1
9
23
37
45
49
53
55
53
48
42
39
35
29
23
14
-1
-16
-23
-24
-25
-29
-31
-27
-20
-12
-3
0
2
5
11
17
20
19
14
5
-4
-11
-11
-8
-4
-3
-9
-18
-26
-29
-30
-30
-28
-21
-11
-2
5
11
15
18
24
32
38
36
28
20
14
8
4
6
10
9
4
-2
-12
-23
-28
-25
-21
-18
-19
-19
-20
-19
-18
-19
-20
-17
-12
-10
-9
-7
-3
4
15
27
39
48
51
48
40
26
9
-1
-6
-9
-12
-13
-13
-12
-9
-7
-6
-4
2
12
18
19
16
12
9
5
0
-4
-10
-16
-21
-24
-28
-33
-35
-30
-23
-17
-11
-1
4
6
12
21
31
38
41
43
42
40
35
27
15
2
-11
-21
-28
-34
-41
-49
-51
-44
-31
-21
-16
-12
-8
-3
1
5
6
5
8
13
16
13
9
9
11
10
3
-2
-1
2
4
1
-1
-4
0
17
37
47
48
42
31
20
17
20
15
1
-11
-20
-27
-36
-47
-49
-40
-28
-16
-7
-4
-6
-9
-16
-30
-41
-41
-35
-26
-17
-12
-10
-9
-7
-3
3
12
25
39
51
60
67
74
74
61
43
31
23
10
-6
-21
-32
-38
-37
-31
-24
-20
-18
-16
-11
-1
5
7
9
13
16
11
2
-8
-16
-19
-19
-15
-9
-6
-6
-7
-8
-11
-13
-3
13
27
33
32
27
19
10
1
-7
-12
-11
-7
-8
-13
-18
-19
-19
-19
-16
-9
1
13
29
48
60
63
58
37
5
-20
-38
-51
-63
-75
-83
-86
-85
-80
-71
-62
-52
-41
-23
-3
13
28
43
59
72
76
73
66
58
54
54
52
47
41
37
33
32
31
28
26
30
32
28
21
14
7
0
-7
-17
-24
-28
-30
-32
-32
-31
-27
-19
-12
-10
-15
-23
-29
-35
-40
-38
-31
-24
-18
-14
-16
-22
-30
-38
-49
-57
-58
-53
-43
-28
-11
-1
0
0
8
16
20
22
25
32
38
41
44
47
51
55
57
55
48
38
31
26
22
21
23
21
16
10
3
-10
-23
-27
-23
-16
-8
-2
-1
0
0
-2
-11
-18
-19
-16
-14
-16
-19
-22
-25
-28
-31
-34
-37
-37
-32
-23
-18
-15
-13
-13
-13
-12
-9
-8
-8
-7
-3
0
4
13
26
36
41
43
41
36
27
19
12
5
2
8
18
26
32
35
33
26
16
5
-2
-3
0
11
27
37
39
38
29
11
-8
-23
-34
-47
-60
-66
-65
-60
-56
-56
-61
-67
-64
-52
-38
-27
-17
-5
9
25
38
44
44
46
52
60
63
61
56
46
32
21
14
10
7
1
-8
-20
-25
-20
-13
-8
-6
-9
-14
-16
-12
-5
0
3
7
12
20
25
25
24
25
23
21
18
5
-13
-30
-45
-64
-77
-77
-72
-64
-58
-51
-44
-37
-30
-18
-4
9
26
47
67
76
73
67
57
43
29
16
4
-5
-13
-20
-26
-28
-23
-12
-5
0
5
13
22
27
28
24
15
5
-1
-7
-12
-18
-25
-30
-29
-26
-22
-19
-21
-25
-26
-27
-29
-27
-18
-2
17
35
47
51
54
60
65
62
57
58
65
69
62
46
27
7
-12
-30
-41
-47
-55
-66
-73
-75
-73
-63
-48
-30
-13
-4
-4
-12
-17
-15
-8
3
19
30
31
26
19
9
0
-3
-4
-6
-16
-29
-37
-43
-39
-17
8
24
29
31
31
27
22
19
19
17
16
18
19
14
0
-14
-25
-36
-49
-62
-67
-62
-51
-31
1
32
55
74
84
81
69
54
38
22
9
2
-1
-3
0
5
9
9
5
-4
-22
-37
-42
-41
-40
-41
-41
-38
-32
-23
-9
2
10
17
26
36
41
40
37
34
33
37
42
44
40
34
26
17
8
0
-5
-11
-19
-30
-44
-57
-61
-53
-44
-37
-31
-26
-23
-23
-23
-22
-22
-22
-13
0
10
12
9
4
0
-1
-4
-11
-17
-20
-22
-23
-25
-26
-24
-15
-1
14
30
48
62
72
81
88
92
91
83
69
47
19
-3
-13
-14
-13
-19
-27
-37
-47
-58
-71
-80
-82
-80
-78
-75
-67
-50
-28
-2
27
52
64
71
80
94
98
88
75
53
19
-9
-21
-23
-25
-29
-41
-58
-73
-82
-88
-88
-81
-69
-54
-35
-14
3
17
26
37
48
57
63
72
85
94
101
108
107
92
67
43
21
-5
-35
-55
-62
-65
-68
-69
-68
-66
-64
-63
-65
-63
-55
-44
-33
-26
-20
-9
4
19
33
38
34
29
27
26
23
20
20
23
26
27
28
28
30
34
38
39
36
37
46
47
40
32
29
30
32
33
31
22
4
-18
-40
-60
-83
-104
-115
-115
-108
-98
-87
-77
-69
-61
-56
-52
-42
-29
-16
-2
14
29
40
49
58
68
73
74
70
57
35
16
6
3
1
0
0
1
3
8
18
24
20
10
2
-5
-14
-18
-19
-19
-22
-23
-19
-12
-4
3
9
13
15
21
33
40
42
40
34
25
21
25
31
38
49
57
52
36
17
0
-12
-19
-22
-23
-23
-22
-25
-32
-42
-54
-60
-59
-56
-54
-47
-35
-23
-14
-6
-2
0
5
15
19
11
0
-4
-2
-1
0
1
0
-2
-14
-33
-52
-63
-62
-56
-53
-46
-32
-11
12
36
51
53
48
45
47
46
42
38
33
29
22
16
13
17
29
39
42
38
28
18
13
11
12
16
17
13
9
7
8
12
19
25
25
12
-11
-35
-52
-63
-72
-79
-79
-72
-63
-58
-58
-59
-50
-31
-6
10
13
10
7
6
8
14
23
32
40
45
42
38
38
40
36
25
15
6
-3
-15
-26
-31
-31
-28
-22
-18
-20
-24
-27
-25
-13
5
24
37
41
39
34
27
20
18
20
25
30
24
7
-9
-21
-31
-43
-56
-58
-49
-42
-37
-30
-19
-6
6
20
29
31
34
43
53
58
58
54
49
44
39
33
25
12
-3
-22
-37
-44
-46
-48
-47
-36
-21
-9
-4
-4
-5
-3
-3
-8
-14
-19
-23
-29
-30
-23
-15
-8
-1
10
27
35
28
14
-2
-17
-25
-24
-20
-19
-18
-16
-14
-11
0
15
31
46
61
74
81
76
63
44
24
2
-14
-21
-23
-27
-42
-60
-71
-73
-68
-60
-50
-35
-17
-1
6
6
1
0
5
14
23
28
31
35
40
43
42
36
25
11
0
-7
-16
-21
-17
-7
-3
-2
2
14
24
28
29
25
17
12
11
8
0
-7
-12
-14
-15
-18
-23
-26
-28
-27
-29
-36
-41
-38
-29
-19
-10
-2
3
8
14
17
13
8
7
13
19
25
28
30
29
25
20
16
8
-2
-15
-27
-38
-47
-52
-50
-41
-29
-17
-7
0
6
10
9
6
5
8
12
14
15
19
22
26
33
43
49
49
46
38
24
5
-8
-16
-20
-22
-19
-9
3
15
26
41
55
59
51
31
2
-22
-35
-41
-48
-57
-65
-70
-72
-70
-65
-62
-59
-52
-44
-36
-28
-22
-13
4
26
45
57
64
72
80
83
77
65
52
39
25
11
-4
-23
-43
-56
-58
-59
-61
-61
-54
-45
-35
-21
-5
9
24
36
41
41
41
42
41
39
41
43
40
30
17
5
1
4
9
4
-13
-35
-46
-45
-37
-28
-21
-17
-13
-12
-14
-15
-14
-7
8
25
36
40
38
30
15
0
-11
-17
-13
-7
-8
-15
-25
-31
-29
-25
-22
-20
-16
-9
0
4
2
-5
-10
-8
2
17
33
44
48
45
32
11
-10
-24
-31
-40
-53
-62
-59
-49
-40
-30
-18
-5
8
24
43
56
59
62
73
85
86
77
66
53
34
16
5
-2
-8
-12
-15
-24
-36
-48
-57
-62
-63
-60
-56
-50
-42
-29
-16
-4
9
23
32
36
39
44
43
31
15
0
-16
-26
-27
-25
-29
-38
-40
-29
-14
3
21
31
31
28
25
23
18
11
5
-3
-14
-23
-26
-25
-22
-16
-9
-5
0
1
-6
-21
-29
-28
-17
-1
12
27
46
63
75
79
74
66
59
52
40
20
-1
-18
-30
-35
-37
-40
-46
-58
-74
-87
-99
-108
-106
-95
-78
-55
-27
5
31
45
56
72
91
102
101
95
84
68
53
40
28
13
-3
-17
-25
-33
-44
-54
-52
-41
-28
-19
-14
-8
-2
2
6
10
10
9
11
16
21
20
12
1
-12
-27
-39
-44
-46
-47
-43
-41
-42
-41
-33
-17
-2
7
17
28
39
44
45
46
48
56
69
83
93
94
78
51
22
2
-8
-14
-15
-12
-14
-21
-22
-18
-13
-13
-17
-22
-25
-31
-40
-47
-51
-51
-47
-36
-22
-16
-19
-24
-29
-37
-44
-43
-39
-37
-37
-35
-34
-34
-28
-10
8
24
38
58
81
93
93
89
81
72
64
58
49
35
18
5
-2
-8
-17
-31
-41
-40
-37
-40
-49
-53
-46
-34
-19
2
21
34
42
46
43
38
38
44
40
20
-4
-20
-24
-23
-25
-28
-27
-24
-20
-18
-20
-22
-22
-20
-22
-30
-36
-37
-34
-29
-19
-5
5
12
17
18
11
5
4
6
9
13
16
15
12
9
6
0
-6
-8
-4
8
22
34
39
37
29
24
21
16
11
12
18
26
26
19
12
5
-1
-7
-12
-15
-16
-22
-33
-43
-43
-30
-13
-7
-10
-14
-19
-25
-32
-35
-34
-29
-18
-7
-2
0
3
7
10
12
16
20
26
33
31
20
10
3
0
-4
-5
0
11
23
26
22
17
11
5
2
4
4
-2
-14
-25
-31
-34
-34
-36
-40
-41
-37
-31
-23
-11
4
20
32
44
54
60
60
59
60
61
56
51
52
52
41
26
12
-7
-33
-54
-67
-76
-81
-83
-82
-79
-73
-66
-56
-46
-40
-32
-19
-3
13
25
33
44
58
69
75
78
74
64
48
33
22
14
4
-6
-17
-32
-50
-64
-67
-61
-52
-42
-30
-12
12
38
57
62
58
54
48
30
8
-6
-11
-9
-5
0
8
13
6
-12
-38
-60
-76
-84
-84
-76
-61
-44
-34
-30
-26
-20
-11
0
22
50
75
89
94
99
102
97
89
75
54
34
20
6
-13
-32
-44
-48
-51
-57
-62
-60
-52
-44
-31
-13
2
14
24
30
30
26
20
13
2
-11
-21
-25
-27
-29
-34
-37
-34
-18
7
30
39
36
31
28
29
29
25
16
7
0
-7
-13
-18
-24
-35
-43
-42
-32
-11
17
41
48
43
29
12
0
-9
-15
-17
-16
-16
-17
-19
-24
-30
-34
-30
-24
-21
-15
-2
12
25
36
47
57
63
65
56
41
29
30
39
45
37
19
0
-18
-30
-35
-37
-40
-45
-51
-59
-65
-67
-66
-67
-72
-72
-64
-55
-44
-32
-24
-17
-4
21
56
89
114
130
136
128
109
85
65
49
39
32
23
8
-18
-53
-83
-102
-114
-118
-113
-103
-89
-77
-73
-72
-63
-44
-20
9
45
73
90
103
122
144
160
163
155
134
98
58
24
-3
-31
-58
-80
-93
-101
-108
-116
-120
-120
-114
-100
-76
-50
-26
-4
15
34
51
64
69
70
69
64
55
46
38
33
30
24
17
9
-3
-13
-19
-25
-29
-31
-28
-20
-8
4
15
17
12
8
1
-5
-6
0
4
6
9
16
21
22
20
14
2
-12
-22
-30
-40
-49
-54
-54
-58
-69
-79
-77
-69
-64
-58
-50
-36
-10
27
59
76
86
89
83
72
60
50
41
31
23
13
0
-13
-23
-27
-27
-27
-26
-22
-14
-1
14
31
51
66
72
73
69
65
61
55
40
15
-15
-42
-61
-73
-84
-95
-95
-82
-64
-53
-47
-41
-31
-20
-8
6
19
30
41
55
60
52
40
31
27
24
20
14
8
0
-13
-27
-40
-51
-56
-49
-36
-23
-14
-2
20
51
78
90
83
60
33
13
0
-15
-32
-46
-57
-66
-72
-73
-69
-60
-49
-40
-30
-17
-3
7
17
27
36
40
42
44
48
50
52
56
60
59
53
45
38
27
11
-1
-10
-17
-25
-33
-36
-36
-32
-25
-17
-14
-14
-13
-12
-12
-11
-12
-17
-21
-20
-13
-8
-7
-5
1
10
15
15
10
0
-9
-13
-15
-20
-26
-27
-22
-14
-5
7
16
19
20
19
16
16
25
39
50
52
44
33
25
17
7
-3
-14
-23
-32
-46
-61
-71
-73
-70
-63
-52
-35
-16
1
19
34
39
36
38
43
46
43
40
36
33
29
27
24
17
5
-8
-19
-29
-38
-43
-43
-38
-32
-27
-21
-15
-8
0
6
11
18
29
36
37
34
31
29
27
25
23
21
20
12
-4
-22
-32
-31
-25
-23
-28
-35
-39
-40
-39
-35
-28
-21
-12
-3
2
4
6
8
10
14
22
32
36
35
31
26
16
8
6
7
9
10
12
14
12
12
12
4
-14
-28
-32
-32
-35
-36
-32
-27
-22
-10
9
25
33
33
27
16
5
1
5
6
2
0
-4
-9
-14
-16
-12
-7
-2
0
0
0
6
22
41
51
45
28
8
-11
-35
-57
-70
-75
-75
-71
-62
-50
-38
-23
0
28
54
73
82
84
77
63
44
22
4
-7
-15
-24
-33
-40
-41
-39
-36
-27
-15
-5
0
1
1
6
13
22
35
56
79
91
87
75
57
33
10
-9
-29
-53
-78
-93
-101
-102
-90
-67
-42
-21
-6
3
10
16
23
29
35
43
47
43
38
42
55
66
64
55
49
46
39
23
2
-23
-54
-83
-103
-117
-125
-126
-116
-101
-86
-69
-49
-29
-12
4
25
48
66
75
79
78
73
67
63
56
47
37
25
16
19
28
37
39
33
23
5
-23
-49
-63
-71
-75
-74
-70
-62
-48
-22
12
37
48
53
50
42
32
24
16
9
4
0
-7
-14
-18
-16
-12
-6
1
10
22
33
40
41
39
38
40
42
39
25
0
-22
-37
-46
-55
-69
-86
-101
-112
-120
-121
-109
-84
-54
-20
19
52
70
80
92
109
120
118
108
88
58
29
5
-17
-43
-69
-84
-86
-82
-71
-55
-39
-24
-11
0
13
23
28
30
39
56
71
78
78
82
90
88
70
40
8
-22
-47
-62
-68
-69
-69
-65
-60
-57
-62
-68
-67
-59
-44
-21
5
27
38
42
44
45
49
61
73
74
64
54
44
30
3
-28
-49
-54
-52
-56
-64
-63
-56
-45
-21
9
25
19
10
9
16
17
13
7
-9
-36
-61
-77
-83
-74
-54
-33
-14
5
29
51
67
72
63
45
31
25
20
10
1
1
7
16
26
40
58
69
69
65
58
42
18
-4
-21
-21
-2
15
23
25
10
-27
-66
-84
-86
-90
-104
-120
-134
-133
-107
-69
-31
9
57
101
118
113
104
94
80
68
62
58
43
18
-8
-30
-50
-74
-97
-104
-90
-68
-48
-35
-23
-3
21
36
39
44
54
64
72
78
78
68
53
31
-1
-36
-59
-70
-80
-90
-88
-60
-16
21
39
39
33
32
37
37
28
17
12
3
-20
-44
-52
-46
-36
-30
-25
-14
2
16
13
-1
-8
-3
2
1
-3
-6
-4
4
14
18
17
18
22
32
41
43
37
29
23
25
33
39
34
21
6
-10
-29
-54
-85
-109
-118
-118
-109
-91
-68
-41
-10
22
50
65
71
71
67
58
50
43
37
31
28
27
25
21
8
-12
-31
-39
-38
-29
-21
-17
-17
-18
-14
-3
7
10
7
8
13
13
8
2
0
-1
-5
-10
-14
-16
-16
-12
-5
1
3
4
6
4
3
5
12
20
25
26
18
5
-2
0
4
11
24
45
61
66
59
42
21
1
-14
-39
-76
-106
-116
-113
-106
-94
-67
-31
0
18
28
34
40
47
53
54
50
46
45
42
33
26
22
17
3
-17
-35
-44
-44
-37
-27
-17
-7
0
3
0
-1
1
2
2
2
4
7
8
8
7
10
15
17
20
23
25
23
17
3
-13
-25
-27
-26
-30
-36
-40
-39
-34
-28
-23
-12
7
27
39
41
38
36
32
22
9
0
-6
-9
-9
-13
-18
-20
-20
-18
-15
-13
-9
-4
0
0
1
7
15
24
34
39
36
30
23
13
4
0
0
-2
-9
-17
-24
-31
-37
-40
-41
-39
-36
-29
-15
0
14
28
39
45
49
49
46
40
33
27
20
11
0
-10
-21
-28
-30
-37
-48
-54
-50
-42
-34
-28
-19
-6
5
15
27
32
29
23
20
18
10
1
-2
0
3
9
18
24
25
23
16
5
-5
-14
-22
-27
-30
-30
-29
-26
-23
-18
-15
-13
-3
12
29
40
44
42
37
32
25
17
6
-2
-8
-12
-21
-33
-40
-40
-37
-32
-26
-19
-13
-8
0
10
21
32
43
52
51
38
21
6
-5
-15
-22
-25
-27
-27
-28
-29
-27
-21
-12
-5
-3
-5
-4
-1
-1
-1
0
5
15
30
43
49
48
43
33
20
7
-3
-11
-20
-23
-23
-25
-30
-35
-35
-30
-25
-19
-11
-4
1
5
8
9
11
18
26
30
29
26
25
23
18
9
1
-6
-11
-17
-24
-32
-34
-30
-20
-10
-3
1
6
10
12
13
13
12
16
21
21
17
13
11
6
1
0
-2
-4
-9
-16
-24
-31
-37
-39
-36
-34
-31
-25
-13
0
14
29
42
54
63
67
65
55
36
15
-2
-14
-23
-29
-29
-22
-14
-14
-24
-34
-37
-35
-29
-23
-21
-23
-28
-29
-24
-17
-10
1
20
43
56
58
56
50
38
24
12
1
-7
-15
-21
-24
-25
-21
-12
-7
-3
1
7
9
12
14
13
7
2
2
1
-1
-2
-1
-2
-6
-12
-14
-13
-8
0
8
13
17
20
21
18
6
-7
-17
-25
-34
-41
-44
-39
-26
-2
24
41
45
43
35
25
17
10
2
-6
-13
-17
-21
-29
-33
-29
-22
-14
-6
0
9
18
25
29
30
31
31
27
19
9
-2
-14
-21
-26
-30
-32
-28
-20
-13
-4
4
10
14
16
15
11
7
4
2
3
3
3
6
11
10
1
-6
-6
-1
1
2
2
0
0
1
-2
-11
-20
-25
-28
-34
-38
-36
-29
-18
-1
14
22
23
21
20
19
17
15
12
12
11
9
5
1
1
3
5
5
6
5
2
-1
-5
-9
-11
-13
-12
-7
1
9
16
21
23
21
16
11
7
1
-6
-12
-19
-20
-15
-18
-31
-39
-36
-27
-20
-19
-18
-14
-10
-5
0
5
13
21
32
43
48
46
43
38
31
24
17
8
0
-7
-16
-28
-37
-42
-41
-38
-33
-26
-19
-13
-7
1
11
22
38
51
55
50
41
30
20
12
4
-5
-15
-21
-23
-27
-34
-31
-17
3
24
38
41
33
19
4
-11
-31
-47
-48
-37
-29
-35
-46
-53
-56
-55
-46
-33
-20
-8
-1
-4
-11
-9
0
9
17
20
21
24
30
38
42
42
40
42
47
45
36
28
23
21
18
16
15
11
5
1
-2
-10
-18
-16
-1
13
19
16
13
9
4
1
0
0
8
29
55
65
51
29
6
-18
-47
-78
-100
-108
-105
-103
-109
-110
-95
-64
-23
19
43
45
37
27
20
15
11
12
14
7
-4
-12
-15
-13
-11
-10
-5
1
15
33
40
35
27
26
29
31
31
29
27
27
28
32
41
45
38
31
29
27
20
10
3
-3
-11
-21
-32
-39
-38
-35
-38
-43
-42
-36
-31
-28
-27
-24
-18
-12
-5
2
7
10
16
21
19
10
3
-1
-4
-5
-2
2
5
5
1
-7
-17
-23
-27
-24
-16
-3
9
21
30
33
34
35
35
35
36
31
20
7
-6
-19
-29
-36
-40
-44
-41
-33
-31
-35
-37
-33
-25
-16
-3
19
42
53
54
53
49
46
47
47
37
19
6
4
5
1
-7
-19
-32
-40
-45
-57
-70
-73
-72
-66
-54
-38
-24
-15
-4
15
34
44
46
47
53
56
55
53
49
44
37
31
26
20
17
11
1
-11
-20
-24
-23
-19
-14
-6
7
18
21
14
2
-8
-10
-7
-6
-13
-23
-32
-41
-48
-45
-31
-20
-16
-15
-23
-34
-38
-33
-24
-16
-11
-6
-1
2
4
5
4
6
13
26
35
40
43
45
42
33
25
19
14
7
0
-9
-19
-25
-26
-24
-21
-18
-13
-3
5
13
19
23
24
26
32
37
37
33
27
18
7
1
0
1
2
2
-3
-18
-35
-44
-40
-35
-28
-16
-3
2
1
-1
-3
-5
-2
2
5
4
1
0
-2
-10
-21
-30
-34
-35
-30
-22
-17
-16
-14
-11
-10
-7
-1
5
12
22
33
41
48
52
56
57
54
50
46
43
41
36
28
12
-4
-14
-20
-31
-46
-62
-70
-68
-66
-64
-59
-50
-38
-23
-6
11
28
42
50
51
46
40
37
36
34
32
28
22
17
7
-12
-32
-41
-44
-49
-54
-51
-40
-27
-16
-9
-5
-3
1
10
17
18
18
20
22
25
30
38
40
37
33
23
6
-13
-29
-37
-39
-39
-37
-35
-36
-35
-30
-26
-21
-11
6
22
30
31
33
41
49
55
56
52
43
32
17
-8
-36
-55
-68
-81
-89
-89
-81
-67
-53
-41
-34
-28
-16
2
23
34
36
37
36
35
34
38
45
51
55
54
46
34
24
22
25
29
33
36
34
27
21
15
7
0
-2
-3
-7
-11
-15
-21
-30
-37
-43
-51
-55
-53
-50
-50
-51
-46
-33
-18
-2
16
33
43
46
42
32
23
21
25
29
28
22
17
11
1
-9
-15
-15
-11
-6
-3
-8
-15
-19
-16
-8
-1
2
1
-4
-10
-10
-8
-10
-16
-18
-17
-18
-22
-27
-30
-32
-31
-28
-25
-21
-10
3
14
22
28
33
36
35
30
20
11
7
7
10
15
21
29
34
31
20
7
-3
-13
-22
-27
-27
-22
-11
2
12
13
6
-1
-9
-16
-18
-14
-9
-4
0
6
13
21
27
28
21
10
3
-1
-4
-6
-6
-5
-2
2
7
11
12
18
30
37
33
20
4
-9
-17
-17
-14
-11
-8
-2
1
-1
-13
-30
-43
-52
-58
-52
-31
-12
-4
-3
-9
-18
-24
-23
-20
-18
-16
-9
0
6
14
19
16
8
3
4
10
19
28
34
38
44
50
51
44
34
24
14
3
-6
-12
-17
-21
-24
-25
-25
-23
-18
-13
-14
-17
-16
-10
-4
1
8
18
27
31
32
23
5
-9
-13
-16
-20
-22
-21
-14
-8
-5
-4
-4
-4
-1
8
27
48
67
79
79
65
45
27
11
-5
-25
-40
-46
-45
-44
-50
-61
-65
-61
-57
-55
-54
-49
-41
-31
-18
-2
12
26
41
53
57
51
41
28
14
4
0
-6
-11
-16
-20
-25
-30
-31
-25
-15
-6
3
14
23
30
39
53
64
67
65
61
54
41
27
17
8
-2
-17
-32
-44
-50
-56
-71
-84
-87
-85
-78
-62
-43
-27
-11
6
26
41
50
56
66
85
98
98
91
81
70
58
49
38
25
16
10
-7
-35
-56
-68
-74
-72
-70
-72
-73
-71
-63
-52
-38
-21
-6
5
14
21
28
36
36
28
19
10
0
-8
-12
-17
-28
-34
-35
-31
-26
-24
-21
-15
-6
1
12
21
26
29
35
43
46
45
40
32
18
3
-10
-24
-36
-44
-49
-51
-47
-32
-10
5
10
7
1
-4
-5
0
5
12
25
40
51
57
60
64
61
50
39
28
16
9
7
3
-11
-29
-38
-35
-28
-23
-22
-24
-25
-24
-23
-24
-24
-17
-5
5
13
18
21
22
21
13
2
-3
-4
-7
-15
-24
-28
-31
-33
-30
-24
-14
-6
0
5
10
14
15
18
25
31
32
32
33
36
38
41
47
48
38
27
21
11
-1
-10
-15
-21
-32
-46
-56
-61
-63
-64
-69
-75
-76
-67
-59
-59
-61
-61
-59
-55
-47
-36
-24
-13
1
16
27
40
59
84
107
117
118
119
120
120
117
108
93
76
60
45
27
6
-15
-39
-59
-70
-67
-58
-48
-42
-45
-59
-76
-86
-83
-70
-58
-50
-44
-34
-22
-12
-5
0
6
13
15
11
10
19
31
43
60
76
77
65
53
44
27
10
3
0
-5
-15
-24
-29
-34
-39
-42
-45
-46
-45
-42
-39
-32
-24
-15
-2
10
18
22
24
28
36
43
43
36
31
30
28
24
24
31
40
45
45
41
34
29
33
45
53
52
43
24
0
-20
-38
-54
-64
-67
-69
-80
-95
-102
-103
-104
-106
-107
-104
-100
-94
-83
-68
-53
-34
-11
13
33
46
54
59
62
61
57
52
50
59
74
83
86
97
120
135
133
118
98
76
57
40
25
2
-28
-52
-64
-72
-86
-106
-124
-133
-137
-141
-146
-145
-133
-116
-101
-87
-64
-35
-4
24
49
68
80
91
104
119
130
137
144
150
150
141
126
111
90
60
33
14
0
-13
-26
-41
-56
-64
-63
-56
-51
-47
-41
-28
-9
5
10
7
0
-9
-17
-26
-38
-52
-62
-68
-71
-71
-73
-79
-83
-82
-87
-97
-99
-89
-75
-60
-41
-19
2
21
43
69
94
121
149
167
170
156
134
109
81
49
21
4
-7
-19
-36
-54
-66
-68
-60
-49
-38
-29
-26
-30
-38
-41
-40
-38
-27
-3
17
26
28
32
39
40
34
28
20
8
0
-3
-9
-19
-24
-21
-14
-8
-1
5
10
13
15
16
13
9
11
17
20
18
16
16
14
5
-9
-19
-21
-18
-19
-34
-49
-50
-43
-37
-31
-23
-12
-1
8
19
25
26
25
28
36
41
42
41
39
31
20
11
2
-9
-20
-25
-25
-24
-21
-15
-10
-5
0
6
14
24
37
49
53
50
46
38
21
-3
-24
-28
-20
-14
-19
-35
-53
-63
-64
-68
-81
-91
-93
-93
-95
-96
-87
-69
-49
-27
0
23
42
60
79
90
88
81
72
65
63
63
60
54
51
52
48
40
33
28
23
17
13
9
2
-5
-7
-5
2
10
12
9
1
-6
-15
-21
-25
-27
-33
-43
-53
-57
-54
-57
-67
-71
-66
-55
-43
-26
-6
16
40
68
94
102
95
85
73
53
28
8
-6
-22
-42
-58
-65
-67
-68
-72
-81
-89
-90
-78
-59
-39
-20
-2
16
41
65
81
88
90
95
103
107
109
114
117
106
82
53
25
-1
-21
-34
-49
-73
-96
-106
-102
-96
-94
-93
-88
-78
-67
-58
-52
-49
-42
-32
-24
-19
-13
-1
12
23
27
26
24
24
27
27
23
20
23
30
39
48
56
62
69
77
79
75
69
63
57
50
40
27
15
4
-3
-5
-3
0
1
-1
-7
-17
-31
-50
-66
-74
-78
-82
-85
-87
-83
-77
-70
-59
-44
-27
-15
-7
-1
6
15
27
45
64
76
79
74
63
49
38
30
17
-9
-36
-53
-60
-63
-65
-62
-56
-51
-46
-38
-27
-15
-2
18
42
58
63
64
64
64
62
55
45
35
34
38
39
32
14
-10
-33
-47
-54
-62
-69
-67
-58
-51
-45
-36
-22
-7
0
0
-7
-17
-20
-14
-4
7
21
36
47
49
44
40
43
44
44
43
42
41
41
39
34
26
23
25
28
26
19
10
-1
-21
-44
-63
-76
-85
-88
-82
-71
-59
-50
-45
-40
-29
-7
20
49
74
89
94
88
70
47
30
17
5
-6
-22
-38
-47
-50
-61
-78
-91
-95
-95
-95
-92
-82
-64
-42
-18
10
39
61
77
83
81
78
78
80
82
78
68
54
42
35
34
33
26
14
2
-6
-11
-14
-17
-20
-18
-10
-5
-9
-15
-20
-24
-30
-37
-45
-51
-51
-46
-38
-28
-13
7
27
37
31
18
7
2
-2
-6
-6
-1
2
1
-3
-11
-11
-5
-1
-7
-17
-22
-24
-36
-52
-58
-53
-40
-13
21
38
36
34
36
41
45
49
54
58
63
67
64
50
28
5
-12
-24
-34
-47
-58
-60
-53
-42
-34
-30
-21
-9
0
6
15
25
30
27
18
6
-1
-1
3
3
-5
-13
-14
-13
-13
-16
-12
-3
3
10
21
30
36
41
42
31
14
4
-2
-8
-13
-14
-9
-2
8
20
25
22
17
15
15
9
-1
-11
-20
-30
-37
-38
-36
-29
-16
-7
-9
-20
-34
-49
-56
-53
-42
-27
-9
7
22
32
39
46
55
61
57
43
25
8
-3
-14
-26
-38
-44
-45
-43
-46
-57
-63
-59
-55
-51
-41
-24
-3
17
43
75
97
103
99
87
69
54
49
50
52
47
36
22
6
-6
-18
-30
-40
-44
-40
-33
-27
-22
-18
-12
-1
11
23
31
38
47
49
39
22
2
-19
-34
-40
-40
-44
-54
-62
-66
-71
-81
-92
-92
-79
-61
-44
-32
-29
-24
-11
12
47
80
101
106
93
68
45
33
27
22
18
17
21
23
18
4
-12
-21
-24
-23
-19
-18
-24
-34
-44
-46
-37
-22
0
21
35
38
36
32
25
16
8
1
-7
-17
-19
-12
-11
-18
-22
-16
-7
-3
-1
2
9
23
43
64
79
85
87
86
75
57
40
30
24
10
-14
-41
-59
-70
-76
-83
-90
-88
-76
-62
-47
-31
-14
0
11
20
27
28
25
25
27
24
12
-1
-16
-29
-37
-38
-39
-45
-51
-51
-47
-47
-46
-37
-20
-7
3
13
24
32
37
39
39
41
45
51
57
62
67
64
54
43
34
30
30
33
36
25
-2
-27
-39
-47
-53
-55
-52
-45
-39
-30
-19
-11
-2
9
22
30
33
32
31
23
7
-8
-19
-26
-31
-40
-51
-60
-60
-51
-47
-49
-46
-34
-16
4
20
31
41
62
95
115
108
83
50
16
-12
-31
-44
-54
-65
-74
-73
-67
-65
-60
-45
-22
2
28
53
70
76
77
73
63
50
40
33
26
16
6
0
-5
-14
-27
-37
-45
-49
-40
-25
-17
-12
1
21
38
43
37
27
13
-2
-14
-20
-22
-19
-11
-4
2
8
9
2
-8
-16
-25
-36
-43
-39
-28
-23
-23
-21
-19
-18
-15
-13
-12
-13
-14
-10
0
12
25
39
49
50
45
37
32
32
32
32
33
31
30
34
39
42
43
38
25
10
-3
-15
-26
-39
-49
-55
-56
-54
-49
-45
-41
-36
-30
-23
-18
-14
-9
-4
-1
3
9
10
7
1
-5
-9
-9
-4
3
9
13
15
15
12
12
14
15
13
10
13
21
32
43
49
43
29
14
-8
-41
-68
-75
-73
-70
-65
-51
-28
-7
6
16
21
24
27
31
34
36
38
38
31
19
3
-11
-25
-37
-46
-49
-51
-50
-35
-5
22
36
38
38
42
55
71
78
72
64
57
52
41
17
-13
-38
-54
-66
-80
-92
-94
-86
-75
-71
-74
-70
-57
-40
-20
6
33
51
61
66
68
69
72
77
82
82
77
70
62
51
36
17
-1
-19
-37
-57
-79
-96
-102
-99
-93
-85
-73
-55
-34
-12
4
11
13
22
40
51
50
42
34
27
20
16
13
5
-8
-18
-19
-17
-17
-16
-10
-2
7
17
28
39
50
65
76
73
57
40
23
2
-20
