emg_value
5
-4
11
22
34
51
71
79
76
76
87
94
86
80
96
110
101
86
81
71
54
51
56
57
50
42
43
54
60
21
-75
-178
-245
-274
-282
-288
-294
-280
-234
-192
-197
-216
-212
-182
-155
-159
-174
-169
-141
-97
-41
20
82
141
190
230
248
240
222
214
219
215
198
186
185
185
173
152
130
109
96
100
123
151
187
228
240
213
170
120
55
-9
-55
-84
-110
-143
-167
-167
-151
-141
-156
-192
-234
-283
-370
-485
-547
-531
-479
-381
-233
-102
-21
52
145
230
280
294
284
270
250
221
201
199
200
176
127
85
79
105
124
112
85
62
39
15
4
6
14
20
18
11
11
18
20
10
-4
-12
-16
-30
-55
-80
-91
-88
-84
-78
-66
-57
-54
-53
-56
-65
-67
-62
-68
-88
-107
-114
-113
-112
-112
-100
-73
-52
-45
-41
-35
-27
-26
-32
-24
8
48
74
77
59
34
17
22
42
63
74
74
71
74
76
72
77
96
113
115
109
112
117
104
78
56
39
19
-4
-26
-37
-50
-75
-95
-87
-67
-53
-44
-40
-29
9
70
111
104
70
41
10
-39
-97
-152
-203
-230
-230
-233
-237
-210
-147
-83
-39
-5
41
100
150
166
163
162
165
165
150
120
86
61
44
27
18
24
29
27
23
26
38
49
55
47
26
2
-25
-56
-75
-69
-50
-55
-91
-122
-131
-133
-126
-107
-89
-73
-54
-32
0
22
14
-7
-7
26
58
66
62
55
48
42
44
61
81
89
83
82
102
136
167
179
170
153
132
107
90
93
111
120
101
59
8
-38
-80
-125
-173
-227
-290
-351
-384
-379
-366
-369
-355
-280
-177
-117
-113
-132
-151
-180
-230
-234
-125
33
151
223
273
305
312
311
318
317
302
275
240
204
179
165
151
134
120
120
131
133
122
105
82
56
31
2
-25
-43
-52
-63
-79
-87
-81
-71
-81
-109
-127
-129
-127
-130
-136
-137
-129
-124
-126
-127
-126
-134
-150
-155
-139
-109
-79
-64
-59
-54
-41
-18
7
22
26
29
32
37
39
33
33
51
76
79
63
57
63
71
78
77
72
70
69
69
70
75
85
103
124
122
103
102
113
97
55
11
-23
-57
-86
-104
-112
-111
-106
-111
-124
-131
-139
-157
-171
-168
-149
-120
-86
-45
-4
42
95
139
148
124
99
90
96
102
98
91
88
83
77
70
65
60
42
11
-11
-12
-7
-7
-8
-7
-2
13
30
34
24
6
-11
-19
-20
-20
-9
10
22
18
0
-21
-38
-72
-121
-155
-165
-173
-191
-203
-207
-211
-208
-200
-186
-156
-93
13
143
230
249
233
213
203
196
181
155
112
59
29
33
47
54
64
71
68
66
61
42
11
-11
-16
-11
-9
-14
-23
-28
-27
-29
-42
-64
-83
-82
-67
-58
-61
-58
-45
-33
-21
-9
-2
2
8
16
15
8
1
-2
-5
-10
-14
-12
-8
-8
-11
-7
0
8
8
5
10
22
27
22
15
16
25
32
29
16
4
3
14
17
5
-11
-33
-60
-75
-69
-47
-12
18
26
21
19
17
7
-4
-11
-9
1
11
12
13
25
40
42
27
7
1
4
4
1
0
-5
-7
0
4
-1
0
12
19
2
-22
-35
-39
-38
-41
-50
-54
-44
-28
-22
-19
0
26
45
45
31
18
20
30
36
40
51
70
79
65
37
17
5
-16
-46
-73
-83
-71
-60
-59
-51
-28
-10
-9
-19
-34
-35
-19
-6
-10
-18
-14
-2
-2
-12
-9
14
41
48
37
23
22
24
16
7
14
25
24
13
-2
-12
-11
0
15
26
31
27
10
-12
-35
-54
-58
-48
-36
-35
-42
-56
-74
-84
-92
-106
-111
-94
-70
-50
-28
1
28
47
58
55
45
49
66
71
60
55
60
67
69
62
48
43
48
52
49
53
61
62
53
44
41
48
63
69
65
63
58
48
36
26
26
39
44
29
3
-17
-36
-53
-55
-52
-57
-54
-46
-47
-52
-47
-40
-37
-34
-19
-2
-2
-19
-36
-49
-55
-49
-32
-23
-33
-45
-42
-31
-30
-32
-28
-24
-28
-33
-31
-27
-28
-38
-52
-54
-54
-67
-73
-46
-11
0
-1
-12
-36
-51
-24
29
69
89
102
110
105
78
50
43
64
96
104
90
81
80
70
53
40
39
41
41
51
75
104
122
111
71
23
-7
-8
11
20
-1
-32
-48
-57
-71
-98
-136
-185
-235
-267
-277
-268
-249
-239
-252
-269
-257
-224
-217
-239
-259
-256
-191
-46
114
243
348
428
455
433
406
395
377
341
299
264
232
189
143
106
81
59
31
0
-30
-56
-72
-82
-92
-94
-78
-66
-75
-92
-92
-74
-51
-45
-58
-72
-73
-70
-67
-65
-64
-59
-42
-25
-24
-32
-32
-27
-27
-33
-36
-32
-31
-39
-52
-64
-63
-51
-45
-42
-39
-38
-34
-29
-35
-47
-41
-18
0
-1
-11
-8
10
25
26
19
24
41
59
68
63
59
65
67
49
21
12
16
10
-7
-18
-11
12
31
28
22
28
40
45
37
21
10
11
20
31
30
16
4
-1
-6
-15
-29
-47
-67
-82
-79
-59
-32
-8
4
9
17
34
59
76
74
66
64
64
52
33
23
40
76
102
98
69
33
-2
-36
-56
-55
-47
-50
-62
-72
-74
-69
-70
-78
-75
-56
-33
-12
3
14
22
30
40
37
24
18
20
17
1
-20
-29
-23
-19
-21
-17
-5
2
7
10
4
-3
-1
6
3
-8
-12
-4
6
13
10
1
-3
-6
-21
-36
-33
-25
-28
-35
-37
-31
-13
16
28
14
5
18
36
40
32
19
6
6
20
21
5
-3
6
18
19
17
22
23
14
-4
-25
-35
-37
-36
-35
-43
-52
-51
-42
-40
-51
-52
-34
-11
-2
-2
-1
7
16
8
-7
-10
0
10
18
27
36
44
53
52
41
36
42
46
39
29
31
33
19
0
-10
-6
5
12
6
-5
-14
-10
9
18
6
-15
-32
-40
-50
-61
-62
-46
-15
6
10
9
8
10
12
11
12
8
-5
-20
-33
-37
-26
0
20
28
24
20
18
15
8
1
0
-3
-15
-27
-29
-18
0
9
5
1
6
16
20
23
32
38
33
26
19
14
16
24
23
11
1
-2
-3
-1
4
12
17
14
10
15
22
26
26
22
10
-3
-12
-25
-39
-49
-47
-35
-29
-36
-41
-36
-26
-14
-3
4
4
6
18
20
9
3
6
3
-13
-21
-11
0
0
-7
-11
-3
10
15
10
7
9
3
-9
-19
-27
-38
-47
-45
-35
-26
-11
4
3
-6
-10
-6
5
22
35
43
52
59
53
40
33
30
28
28
22
8
-6
-26
-42
-48
-44
-34
-14
6
11
7
15
35
47
48
44
37
26
23
26
17
0
-9
-11
-15
-20
-20
-16
-13
-18
-29
-37
-42
-44
-42
-39
-39
-47
-56
-60
-61
-52
-38
-24
-12
-7
-8
-4
1
2
4
18
39
52
45
30
28
42
63
73
68
61
68
83
77
46
20
18
36
55
62
60
39
-15
-82
-126
-153
-192
-242
-274
-277
-260
-239
-224
-212
-206
-187
-141
-88
-53
-32
-15
10
46
70
78
96
132
171
189
189
194
213
237
244
236
229
229
228
211
179
149
137
136
129
110
92
85
84
69
41
17
2
-6
-8
-8
-15
-35
-60
-82
-97
-103
-105
-108
-105
-95
-79
-61
-48
-45
-48
-49
-48
-49
-58
-75
-82
-68
-49
-47
-53
-40
-21
-21
-36
-48
-54
-66
-84
-92
-76
-40
-14
-8
-12
-18
-22
-27
-37
-45
-40
-25
-6
9
17
28
37
28
13
1
-2
3
13
15
16
24
38
54
56
43
40
51
54
43
28
18
12
8
1
-11
-18
-9
12
33
35
21
9
9
19
20
6
-7
-14
-26
-40
-41
-26
-4
5
1
-5
-10
-9
2
6
-3
-8
-1
10
10
0
-8
-8
-7
-8
-14
-28
-33
-22
-18
-20
-13
0
8
8
10
21
24
15
4
-2
-8
-10
0
9
9
12
18
15
8
4
8
15
20
24
32
42
49
54
42
21
11
19
39
41
28
26
37
37
22
3
-9
-12
-14
-25
-43
-60
-72
-79
-80
-77
-75
-72
-70
-68
-69
-69
-59
-43
-31
-20
-3
26
69
97
98
95
98
100
95
81
73
65
32
-15
-51
-64
-72
-94
-119
-126
-111
-89
-78
-88
-113
-110
-58
-6
14
15
15
31
56
72
82
77
47
10
-14
-23
-9
25
52
56
52
70
104
110
83
59
51
49
38
18
0
-7
0
11
21
33
44
43
26
2
-11
-18
-20
-16
-16
-22
-22
-15
-14
-23
-27
-22
-14
-15
-23
-24
-17
-9
-5
-3
0
0
1
-2
-12
-21
-25
-32
-46
-53
-44
-36
-46
-55
-49
-32
-16
-8
-3
6
23
48
65
54
26
3
-14
-27
-34
-35
-32
-21
-6
0
-8
-18
-23
-33
-43
-42
-32
-16
7
25
27
34
54
61
45
27
21
22
22
22
26
37
48
54
56
55
54
55
49
31
6
-8
-12
-4
4
0
-9
-13
-18
-35
-52
-48
-32
-27
-30
-30
-22
-4
20
45
61
58
45
41
33
17
7
5
0
-1
3
5
6
9
8
-1
-9
-8
-9
-20
-27
-23
-20
-22
-27
-34
-38
-41
-56
-82
-99
-94
-71
-35
-4
5
0
-1
8
14
11
9
13
17
8
-5
-3
15
30
32
26
13
2
5
19
20
6
0
-2
-12
-24
-28
-22
-9
0
-7
-20
-20
-7
5
9
8
17
36
41
30
22
29
41
46
43
35
28
25
22
11
0
-4
-7
-13
-18
-19
-14
-1
7
3
-9
-21
-28
-29
-35
-53
-61
-47
-32
-24
-18
-12
-4
0
1
2
8
18
24
17
6
3
11
20
15
6
13
28
36
34
22
7
-6
-16
-22
7
15
24
28
20
6
0
6
18
20
6
-14
-36
-49
-38
-13
-6
-16
-16
2
21
26
27
32
32
17
0
-8
-1
18
32
26
13
11
19
30
36
34
31
20
-6
-24
-12
9
20
14
0
-12
-19
-28
-39
-54
-70
-79
-86
-97
-102
-87
-49
-2
30
34
27
34
48
44
27
12
10
22
36
33
15
4
16
41
58
60
57
60
64
55
35
20
19
24
20
13
12
8
-6
-30
-51
-49
-25
-8
-13
-25
-29
-31
-40
-51
-58
-60
-52
-40
-39
-45
-43
-27
-13
-12
-17
-12
20
70
98
91
72
59
50
35
18
9
9
5
-5
-19
-30
-34
-29
-25
-31
-36
-40
-48
-56
-58
-51
-37
-29
-33
-32
-12
12
20
15
3
-7
-6
4
4
-6
-7
2
11
18
32
54
78
97
97
87
85
81
61
32
6
-5
0
7
1
-16
-25
-16
-6
-11
-31
-43
-35
-15
3
14
17
13
-3
-20
-23
-11
10
36
43
27
3
-9
-4
12
37
63
70
53
23
-5
-26
-39
-48
-60
-77
-87
-91
-101
-116
-130
-137
-130
-112
-96
-84
-65
-50
-56
-62
-58
-39
-4
35
59
66
61
57
63
67
69
78
92
100
95
90
97
106
111
107
90
80
89
95
70
33
10
3
-4
-19
-30
-30
-24
-26
-32
-28
-11
8
20
14
-10
-36
-46
-41
-35
-28
-9
14
22
6
-13
-28
-44
-64
-83
-100
-102
-88
-75
-69
-66
-65
-58
-41
-23
-14
-7
8
33
52
60
61
57
50
48
48
48
46
38
32
22
10
1
-7
-21
-36
-36
-16
7
13
3
4
20
36
32
17
12
21
38
49
47
45
47
36
12
-10
-15
-9
-6
-15
-23
-23
-23
-30
-56
-90
-111
-102
-61
-11
25
52
69
71
64
55
50
37
8
-26
-49
-52
-41
-28
-27
-42
-59
-75
-102
-133
-148
-139
-117
-99
-82
-59
-30
10
50
62
44
22
13
17
33
57
79
101
130
159
179
192
189
158
115
92
106
139
153
138
106
67
36
17
0
-4
4
3
-22
-68
-125
-187
-243
-287
-324
-348
-339
-293
-224
-138
-44
37
89
108
115
136
164
170
146
108
80
74
86
97
106
132
178
206
186
129
73
35
0
-40
-83
-117
-138
-141
-131
-117
-107
-84
-38
-10
-31
-89
-162
-226
-262
-265
-246
-182
-66
40
93
110
133
165
173
162
158
148
113
70
50
68
116
158
158
128
101
96
107
114
106
83
44
-15
-108
-236
-354
-418
-455
-525
-624
-687
-644
-502
-326
-164
-10
162
334
428
437
425
422
411
390
372
359
352
349
318
232
123
65
77
80
4
-107
-141
-64
40
103
133
149
132
84
30
-19
-66
-114
-173
-238
-305
-360
-349
-257
-132
-35
-11
-39
-57
-22
66
171
236
252
259
255
222
182
165
169
166
125
49
-55
-194
-364
-543
-680
-726
-684
-619
-575
-521
-436
-324
-179
-34
49
77
75
62
90
190
315
393
410
403
387
362
340
314
287
280
290
285
254
210
152
86
24
-33
-86
-128
-145
-99
20
150
237
303
355
371
354
313
255
197
135
50
-60
-180
-350
-593
-783
-816
-702
-488
-272
-155
-141
-170
-238
-366
-492
-539
-484
-317
-71
129
216
240
314
485
633
664
624
550
452
371
313
254
204
172
137
108
93
41
-76
-205
-315
-444
-644
-898
-1081
-1115
-1029
-864
-652
-454
-309
-177
-13
173
365
549
752
970
1097
1102
1039
913
728
536
369
229
125
66
56
78
93
-34
-430
-965
-1417
-1664
-1633
-1349
-970
-608
-246
198
688
1015
1127
1127
1061
943
813
699
584
465
384
360
352
314
236
132
7
-147
-376
-661
-864
-938
-933
-830
-612
-384
-217
-84
49
157
158
73
2
-26
-31
-19
36
170
375
565
643
623
552
370
56
-257
-471
-570
-558
-481
-395
-308
-201
-80
12
4
-120
-279
-329
-190
43
248
389
456
443
390
344
337
368
394
403
426
485
516
385
97
-242
-684
-1245
-1652
-1742
-1613
-1311
-887
-515
-279
-120
41
236
435
645
892
1097
1138
1018
843
602
278
28
-52
-49
-25
8
0
-72
-166
-203
-118
32
152
213
257
334
414
457
462
426
356
288
241
220
192
102
-69
-346
-750
-1253
-1666
-1730
-1465
-1029
-560
-236
-80
10
102
207
302
391
495
602
683
737
822
1002
1289
1568
1650
1536
1360
1151
895
615
312
-15
-408
-865
-1222
-1401
-1465
-1471
-1475
-1529
-1668
-1963
-2359
-2589
-2542
-2331
-1982
-1496
-1005
-573
-72
506
960
1235
1477
1869
2418
2891
3196
3383
3461
3413
3174
2749
2242
1700
1145
664
295
-14
-309
-595
-878
-1189
-1651
-2304
-2891
-3249
-3456
-3678
-3983
-4164
-4036
-3561
-2831
-2090
-1448
-829
-95
711
1292
1575
1751
1969
2240
2443
2537
2640
2817
2951
2950
2865
2775
2696
2563
2323
1973
1506
991
602
399
254
-90
-741
-1458
-2079
-2643
-3195
-3623
-3732
-3586
-3326
-2956
-2511
-2030
-1529
-1050
-617
-220
171
668
1293
1817
2099
2187
2155
2053
1884
1665
1441
1233
1047
895
767
652
554
470
385
290
175
-66
-485
-883
-1113
-1219
-1195
-1029
-838
-698
-610
-599
-631
-639
-603
-516
-411
-369
-404
-478
-595
-778
-974
-1106
-1142
-1106
-1036
-963
-900
-804
-597
-249
202
707
1337
2117
2858
3440
3808
3937
3876
3613
3169
2627
1972
1224
566
66
-363
-856
-1457
-1993
-2374
-2857
-3660
-4551
-5246
-5714
-6043
-6177
-5847
-4996
-3569
-1634
165
1424
2268
2907
3427
3753
3930
4156
4609
5112
5218
4898
4439
3972
3511
3077
2666
2252
1867
1548
1256
907
362
-447
-1394
-2382
-3416
-4645
-5952
-6700
-6728
-6395
-5873
-5224
-4543
-3853
-3028
-2070
-1228
-587
-29
592
1344
2060
2592
2986
3474
4217
4993
5566
5927
6266
6648
6708
6240
5357
4236
3109
2076
1124
118
-1020
-2080
-2964
-3766
-4903
-6666
-8488
-9887
-10930
-11426
-10904
-9452
-7623
-5422
-2727
-222
1582
2883
3884
4656
5194
5431
5429
5319
5140
4887
4546
4175
3837
3519
3200
2891
2609
2361
2158
1999
1861
1719
1595
1465
1235
905
548
136
-350
-806
-1168
-1477
-1831
-2250
-2578
-2745
-2886
-3098
-3288
-3353
-3312
-3246
-3173
-3014
-2741
-2341
-1783
-1159
-599
-146
264
663
939
1077
1249
1540
1823
2001
2102
2176
2211
2108
1889
1661
1465
1300
1173
1102
1130
1310
1515
1471
1121
578
-276
-1503
-2685
-3531
-4146
-4508
-4404
-3897
-3268
-2720
-2395
-2328
-2405
-2523
-2556
-2300
-1740
-1034
-159
910
1903
2672
3421
4172
4608
4655
4501
4191
3730
3247
2840
2492
2196
1936
1631
1252
855
464
88
-209
-433
-657
-991
-1465
-1903
-2113
-2002
-1552
-961
-524
-254
85
585
1029
1181
1012
680
424
451
786
1141
1068
482
-238
-819
-1233
-1546
-1884
-2305
-2830
-3673
-4808
-5618
-5842
-5818
-5832
-5821
-5494
-4772
-3611
-2055
-556
619
1564
2571
3781
4753
5219
5383
5455
5466
5306
4986
4650
4412
4273
4143
3956
3683
3275
2746
2189
1667
1113
468
-144
-608
-918
-1162
-1433
-1663
-1789
-1907
-2243
-2828
-3334
-3569
-3693
-3788
-3650
-3205
-2630
-2013
-1386
-868
-487
-153
134
274
272
250
288
372
435
489
595
778
988
1125
1165
1151
1058
894
782
781
832
882
899
851
744
603
392
91
-215
-458
-652
-947
-1392
-1742
-1848
-1781
-1610
-1344
-982
-592
-309
-245
-331
-393
-355
-155
249
725
1104
1335
1416
1347
1151
920
748
614
464
357
370
424
451
563
819
1068
1163
1127
1020
789
410
-63
-571
-991
-1303
-1616
-2078
-2634
-2986
-3116
-3191
-3103
-2637
-1878
-1117
-508
-45
313
662
1067
1612
2272
2735
2913
2989
3066
3171
3242
3200
3065
2998
2956
2574
1759
652
-540
-1408
-1798
-1948
-2140
-2459
-2755
-2953
-3239
-3662
-3874
-3605
-2899
-1886
-880
-279
-40
133
445
943
1437
1746
1848
1784
1613
1386
1147
850
439
-2
-410
-822
-1305
-1740
-1851
-1679
-1436
-977
-87
1023
2032
2775
3281
3645
3781
3662
3365
2926
2411
1866
1276
554
-278
-994
-1531
-2028
-2617
-3260
-3689
-3816
-3795
-3768
-3753
-3694
-3581
-3260
-2570
-1743
-1039
-443
197
925
1571
2029
2394
2713
2869
2839
2726
2626
2560
2429
2196
1981
1968
2185
2427
2590
2726
2938
3184
3119
2616
1905
1052
53
-851
-1569
-2499
-3837
-5120
-6064
-6778
-7392
-7866
-7946
-7701
-7458
-7185
-6582
-5640
-4503
-2862
-547
1786
3611
5087
6285
6841
6746
6443
6226
6104
5923
5621
5235
4725
4098
3511
3026
2551
1962
1279
717
310
-80
-541
-1043
-1439
-1678
-1887
-2096
-2122
-1898
-1561
-1124
-549
10
397
562
401
-92
-661
-1078
-1338
-1522
-1659
-1704
-1689
-1648
-1579
-1523
-1486
-1428
-1353
-1307
-1287
-1260
-1347
-1618
-1830
-1834
-1751
-1646
-1470
-1227
-975
-740
-561
-439
-292
-56
248
526
693
860
1175
1608
2040
2399
2709
2975
3129
3092
2855
2523
2190
1793
1277
795
522
481
642
940
1260
1560
2048
2774
3232
3080
2511
1745
941
301
-158
-609
-1215
-1948
-2574
-3064
-3573
-4227
-4948
-5407
-5502
-5471
-5471
-5427
-5250
-4907
-4192
-2976
-1598
-390
875
2387
3714
4610
5301
5904
6267
6250
5962
5459
4558
3268
1947
815
-178
-1392
-2968
-4237
-4842
-5112
-5307
-5272
-4681
-3644
-2423
-1094
158
1161
1822
2129
2236
2264
2214
2071
1900
1816
1793
1679
1360
882
473
297
306
430
597
697
732
802
1063
1524
1923
2205
2481
2571
2243
1589
823
119
-398
-694
-821
-890
-943
-1007
-1139
-1281
-1409
-1644
-2176
-2971
-3616
-3916
-3949
-3658
-3035
-2259
-1479
-694
27
453
514
425
401
513
773
1128
1507
1865
2061
2001
1768
1387
834
244
-282
-793
-1418
-2147
-2698
-2939
-2962
-2815
-2431
-1714
-701
526
1796
2714
3166
3435
3857
4513
5073
5267
5079
4507
3601
2553
1541
551
-449
-1294
-1901
-2370
-2833
-3281
-3502
-3418
-3147
-2824
-2503
-2177
-1890
-1700
-1589
-1473
-1268
-961
-469
198
730
1008
1156
1111
719
21
-754
-1405
-1773
-1783
-1616
-1461
-1240
-856
-459
-230
-276
-516
-582
-328
71
561
1127
1613
1966
2230
2458
2621
2565
2334
2111
1936
1801
1729
1726
1804
1977
2153
2211
2177
2141
2098
1987
1809
1565
1132
521
-5
-369
-740
-1305
-2030
-2585
-2849
-3002
-3258
-3625
-3830
-3757
-3555
-3331
-3023
-2561
-1990
-1183
-51
956
1453
1577
1592
1615
1644
1630
1557
1402
1095
658
224
-80
-257
-457
-758
-1071
-1435
-1924
-2307
-2376
-2159
-1670
-950
-223
319
686
947
1191
1534
1902
2052
1940
1781
1693
1571
1264
836
613
710
917
1020
896
537
19
-555
-1165
-1805
-2341
-2743
-3139
-3406
-3182
-2483
-1665
-813
169
1105
1778
2201
2530
2858
3046
2986
2688
2177
1547
912
339
-270
-956
-1444
-1606
-1610
-1625
-1652
-1561
-1312
-985
-524
59
487
667
842
1174
1518
1705
1761
1868
2119
2297
2249
2021
1586
984
450
89
-211
-793
-1802
-2765
-3326
-3518
-3382
-2974
-2408
-1807
-1264
-870
-705
-718
-758
-688
-498
-305
-153
26
292
530
526
296
60
-18
70
228
363
437
575
944
1402
1709
1814
1809
1767
1724
1730
1763
1706
1513
1258
978
634
120
-512
-950
-1071
-1059
-1132
-1372
-1696
-1978
-2223
-2450
-2513
-2324
-1892
-1276
-682
-275
-76
-15
19
71
111
128
122
91
75
162
419
901
1525
2000
2187
2174
2013
1726
1441
1281
1236
1290
1393
1402
1274
1096
970
958
983
920
765
553
250
-142
-538
-865
-1155
-1476
-1789
-2088
-2496
-3026
-3483
-3769
-3877
-3820
-3666
-3402
-3015
-2481
-1829
-1273
-935
-713
-383
203
905
1543
2080
2571
2996
3198
3176
3170
3326
3467
3412
3197
2953
2749
2547
2307
2035
1764
1495
1163
760
365
-62
-621
-1230
-1759
-2157
-2621
-3317
-3897
-4060
-4016
-4007
-3920
-3630
-3200
-2645
-1998
-1413
-917
-304
483
1206
1740
2132
2458
2782
3016
3058
2898
2532
2024
1572
1311
1197
1109
971
766
509
218
-169
-693
-1220
-1660
-2031
-2255
-2195
-1848
-1299
-593
101
507
615
629
679
746
733
621
470
332
252
258
308
317
306
367
467
487
300
-105
-537
-822
-951
-990
-1007
-1033
-1082
-1156
-1213
-1142
-884
-527
-194
67
240
315
349
403
479
528
479
332
170
103
172
289
349
366
402
464
520
556
605
680
707
648
562
489
432
400
392
386
353
299
282
326
353
288
167
35
-122
-289
-391
-403
-399
-432
-471
-492
-531
-610
-715
-842
-1002
-1160
-1247
-1294
-1421
-1614
-1678
-1520
-1211
-788
-284
166
480
668
760
805
842
877
908
949
998
1033
1046
1088
1161
1155
1032
862
591
179
-163
-263
-170
44
309
457
388
148
-241
-724
-1111
-1314
-1364
-1204
-796
-289
132
395
510
522
475
410
362
332
298
261
233
195
137
75
29
3
-7
-6
-6
-10
-12
-19
-37
-60
-73
-71
-67
-69
-77
-94
-113
-129
-142
-151
-150
-140
-135
-137
-142
-138
-121
-106
-101
-90
-72
-62
-69
-80
-70
-49
-43
-48
-53
-62
-75
-71
-44
-8
20
37
46
47
34
17
9
14
23
22
10
2
14
41
53
39
10
-2
6
20
27
33
39
50
61
61
54
49
57
76
78
60
51
56
55
42
28
23
28
33
27
24
27
34
41
35
17
8
8
10
8
0
-11
-19
-21
-26
-33
-30
-18
-13
-21
-34
-43
-54
-62
-61
-52
-34
-15
0
6
-3
-23
-30
-21
-14
-16
-23
-20
0
15
18
20
29
38
35
24
19
17
13
8
0
-2
2
8
9
12
28
45
46
33
19
12
4
-4
-10
-25
-53
-64
-51
-48
-61
-66
-56
-43
-40
-43
-34
-16
-4
4
12
19
26
40
54
59
56
53
51
43
34
28
14
-6
-31
-49
-43
-21
-7
0
12
27
34
32
18
-6
-26
-19
5
20
20
18
9
-7
-21
-23
-17
2
29
40
29
16
14
23
25
9
-13
-30
-35
-35
-36
-36
-25
-9
1
5
7
10
13
17
27
34
31
31
34
27
15
9
3
-4
-10
-8
-9
-17
-23
-30
-43
-51
-41
-33
-33
-22
-14
-27
-43
-42
-29
-29
-50
-70
-78
-77
-58
-22
-4
-15
-20
1
37
66
85
99
105
96
71
50
39
26
7
-8
-14
-9
1
6
-1
-24
-44
-32
19
66
74
70
75
89
113
128
114
84
62
61
70
72
43
-11
-53
-66
-69
-104
-175
-235
-267
-281
-299
-335
-346
-297
-217
-152
-112
-83
-49
14
93
135
133
127
134
145
154
153
137
106
79
76
95
135
209
306
372
356
285
215
160
121
96
61
1
-95
-217
-307
-331
-306
-263
-219
-168
-108
-51
-30
-41
-54
-56
-41
4
73
125
144
145
139
132
110
75
34
-21
-102
-180
-220
-208
-174
-165
-178
-170
-126
-60
11
78
121
132
135
145
149
141
127
110
92
68
42
26
21
20
20
23
31
47
61
60
49
41
35
18
-5
-20
-13
0
-6
-25
-28
-26
-34
-44
-44
-40
-42
-50
-57
-60
-48
-14
24
38
29
22
16
2
-5
-16
-50
-97
-136
-160
-171
-156
-117
-81
-67
-59
-20
48
112
136
120
101
112
144
161
153
131
107
87
60
18
-27
-65
-104
-162
-224
-260
-285
-308
-279
-189
-97
-24
56
132
170
176
175
178
170
147
130
126
128
118
99
91
103
116
111
98
99
123
165
192
188
174
154
117
76
44
13
-31
-89
-135
-152
-134
-100
-85
-119
-185
-242
-289
-327
-343
-357
-401
-477
-528
-493
-394
-295
-220
-151
-82
-28
34
129
211
251
271
292
315
324
312
288
266
258
248
226
203
186
178
173
161
144
131
119
93
59
30
5
-21
-52
-75
-81
-80
-94
-114
-116
-108
-169
-324
-457
-492
-460
-384
-281
-187
-119
-79
-57
-33
-7
16
46
86
126
148
153
154
169
190
196
192
194
202
202
191
185
195
208
211
201
197
230
351
518
560
451
307
158
-8
-140
-201
-238
-286
-331
-358
-366
-361
-359
-359
-353
-341
-327
-308
-285
-260
-228
-178
-122
-91
-83
-67
-32
2
21
26
34
50
67
81
89
104
130
160
172
157
139
144
159
155
131
104
71
31
1
-16
-42
-91
-152
-194
-208
-204
-189
-174
-146
-88
8
123
211
252
261
259
261
261
254
246
228
193
154
125
105
72
22
-17
-40
-69
-118
-168
-199
-210
-208
-190
-158
-127
-105
-86
-54
-9
15
21
35
56
58
37
9
-3
-1
-2
-9
-11
-9
-5
1
-1
-20
-37
-42
-39
-37
-46
-57
-57
-49
-47
-41
-20
6
20
17
8
7
14
18
11
-3
-16
-21
-10
6
17
23
30
33
27
17
7
-6
-13
-1
14
20
19
10
5
12
23
36
47
56
68
86
99
93
78
67
66
77
95
101
76
38
13
-1
-23
-54
-85
-106
-130
-193
-284
-345
-306
-171
-48
5
14
15
28
44
48
46
54
65
58
31
16
21
29
27
13
5
12
21
22
19
33
80
127
140
136
136
124
91
38
-21
-68
-89
-97
-108
-118
-113
-95
-75
-57
-43
-45
-97
-206
-303
-341
-326
-246
-103
36
128
181
208
211
195
171
157
161
175
176
157
133
125
133
126
94
63
48
48
44
29
9
-14
-34
-45
-55
-69
-84
-96
-103
-111
-113
-99
-80
-71
-68
-45
8
47
45
31
27
24
15
4
-10
-22
-25
-30
-37
-34
-19
0
7
-6
-26
-28
-7
15
25
20
4
-8
-20
-28
-18
1
10
4
-4
-5
-2
-4
-10
-7
3
8
-3
-21
-38
-48
-41
-18
-3
-11
-15
3
28
46
52
46
31
14
-1
-10
-17
-31
-53
-58
-38
-9
10
14
4
-4
1
15
20
15
8
7
8
9
13
21
20
2
-20
-28
-22
-14
-15
-16
-4
20
39
46
52
59
62
61
51
33
17
9
19
47
75
72
38
11
22
49
40
-5
-46
-67
-73
-76
-91
-116
-134
-149
-153
-131
-87
-43
-15
0
16
40
63
79
80
68
58
53
55
50
39
41
56
61
50
37
32
25
11
1
3
9
20
28
17
-12
-35
-40
-36
-31
-31
-32
-33
-39
-50
-61
-60
-44
-24
-17
-19
-10
11
32
43
42
38
34
26
10
-1
-3
4
12
10
-3
-14
-16
-16
-19
-20
-12
3
10
8
12
30
46
45
27
4
-9
-13
-20
-32
-41
-39
-32
-33
-41
-42
-26
2
28
35
24
20
27
27
17
16
32
51
62
53
27
-5
-29
-36
-32
-25
-16
-11
-12
-10
0
9
13
8
0
0
11
28
34
29
20
13
12
16
6
-10
-13
-10
-20
-34
-38
-34
-26
-16
-10
-13
-18
-15
-10
-12
-21
-27
-20
-4
4
2
2
9
16
17
12
7
0
-15
-33
-44
-43
-28
-14
-13
-10
0
12
27
35
31
24
20
10
-3
-10
-11
-8
-7
-10
-10
-8
-9
-14
-26
-36
-30
-20
-23
-33
-36
-24
-10
-10
-14
-17
-12
1
10
9
7
14
27
30
18
4
8
36
68
77
68
61
59
56
54
54
52
50
54
49
29
8
-8
-24
-29
-25
-19
-9
0
1
-8
-14
-5
11
22
18
-2
-25
-27
-25
-35
-43
-39
-37
-44
-53
-58
-49
-26
-7
-4
-4
0
5
7
5
5
6
0
-13
-27
-35
-39
-46
-51
-47
-31
-7
15
31
42
49
48
43
40
38
36
29
6
-17
-18
-2
2
-15
-33
-25
3
31
42
30
13
13
24
36
41
41
39
25
1
-10
-14
-23
-26
-11
-1
-9
-8
7
14
6
8
24
25
2
-17
-20
-17
-13
-3
10
14
10
6
0
-16
-30
-31
-16
10
27
30
31
32
28
14
1
-8
-16
-20
-20
-22
-27
-39
-51
-66
-84
-83
-62
-59
-79
-90
-70
-44
-47
-64
-59
-34
-11
-4
-7
-13
-19
-34
-49
-37
-1
48
101
146
181
203
211
202
174
140
112
87
65
40
0
-44
-71
-76
-78
-83
-90
-119
-179
-230
-237
-213
-194
-203
-227
-228
-169
-31
145
273
338
379
395
381
352
326
298
234
128
43
27
70
157
242
265
234
188
138
76
-9
-109
-196
-272
-365
-453
-500
-508
-494
-484
-492
-496
-467
-423
-379
-303
-191
-55
88
189
242
291
346
387
408
416
419
404
351
279
231
191
67
-166
-374
-438
-353
-132
152
350
425
458
490
492
446
382
330
265
142
-33
-241
-494
-821
-1126
-1229
-1131
-926
-672
-460
-322
-205
-69
83
224
339
423
478
504
484
430
387
376
398
434
465
473
457
431
394
339
278
225
182
145
102
45
-34
-141
-280
-460
-660
-869
-1072
-1193
-1193
-1121
-1031
-923
-769
-557
-267
69
331
473
558
638
714
769
813
855
896
933
936
911
878
831
748
603
381
151
37
59
88
36
-122
-412
-779
-1182
-1591
-1953
-2149
-2018
-1602
-1101
-619
-195
87
233
337
462
605
712
776
858
966
1010
959
868
820
838
831
739
613
491
360
211
54
-96
-217
-295
-362
-449
-544
-598
-579
-531
-523
-560
-619
-681
-703
-649
-515
-321
-125
5
71
122
207
319
385
389
391
490
802
1254
1588
1650
1482
1193
881
602
333
57
-143
-203
-180
-157
-182
-280
-467
-735
-1086
-1488
-1816
-1980
-1988
-1987
-2105
-2218
-2208
-2073
-1780
-1307
-751
-247
189
586
867
971
923
806
750
819
976
1153
1334
1515
1618
1611
1547
1459
1356
1249
1151
1054
936
795
643
498
370
264
182
111
38
-55
-198
-380
-578
-733
-755
-647
-531
-472
-444
-445
-486
-542
-576
-576
-545
-489
-420
-343
-257
-182
-134
-112
-94
-34
90
228
315
353
360
330
281
235
182
125
118
155
121
-48
-323
-747
-1297
-1713
-1843
-1756
-1519
-1178
-793
-422
-77
216
408
516
596
691
798
854
843
820
856
962
1058
1087
1064
1008
927
821
705
622
600
632
711
816
872
794
559
185
-321
-1058
-1934
-2481
-2489
-2178
-1773
-1405
-1140
-946
-737
-525
-398
-370
-386
-412
-435
-439
-441
-422
-244
171
650
979
1132
1253
1430
1551
1522
1392
1235
1096
977
884
857
1002
1290
1427
1253
833
326
-45
-255
-430
-691
-1034
-1255
-1251
-1113
-960
-899
-1018
-1306
-1646
-2004
-2374
-2590
-2537
-2201
-1624
-973
-363
205
745
1220
1534
1664
1681
1658
1602
1487
1340
1212
1103
1006
932
894
884
871
830
765
669
545
415
282
130
-31
-150
-176
-151
-157
-217
-349
-547
-734
-872
-1001
-1175
-1352
-1372
-1205
-951
-610
-176
208
466
699
925
995
894
760
665
613
597
646
748
740
500
145
-151
-361
-620
-1021
-1449
-1799
-2067
-2264
-2381
-2359
-2194
-1920
-1562
-1200
-873
-561
-217
158
458
646
799
934
1030
1124
1282
1554
1884
2094
2131
2084
2041
2003
1910
1765
1602
1428
1238
1017
738
396
-86
-699
-1149
-1283
-1287
-1380
-1593
-1824
-1956
-1928
-1777
-1579
-1353
-1043
-666
-337
-69
179
374
489
581
733
937
1166
1487
1847
2030
1922
1611
1249
895
509
81
-388
-869
-1202
-1322
-1319
-1277
-1226
-1168
-1149
-1284
-1574
-1795
-1804
-1667
-1485
-1244
-831
-197
591
1282
1529
1390
1198
1078
974
863
741
593
357
9
-334
-588
-755
-838
-841
-764
-634
-501
-328
-33
340
704
1059
1382
1566
1611
1606
1518
1307
1081
927
810
691
562
421
255
93
2
-70
-264
-578
-899
-1182
-1382
-1420
-1345
-1268
-1187
-1044
-836
-606
-382
-171
0
105
179
270
397
536
705
1005
1526
2087
2329
2215
1958
1643
1257
836
430
55
-313
-683
-982
-1207
-1492
-1899
-2300
-2638
-2972
-3439
-4058
-4532
-4672
-4469
-3882
-2986
-1978
-1004
126
1529
2722
3382
3669
3792
3830
3729
3490
3175
2824
2473
2143
1835
1519
1181
881
647
446
239
20
-207
-490
-829
-1129
-1256
-1098
-678
-139
459
1033
1328
1276
965
493
57
-236
-445
-683
-972
-1178
-1269
-1375
-1721
-2356
-2957
-3330
-3559
-3680
-3552
-3007
-2168
-1110
228
1540
2461
2920
3123
3299
3388
3316
3142
2889
2569
2239
1949
1671
1211
418
-559
-1525
-2532
-3562
-4250
-4419
-4228
-3724
-2943
-2138
-1527
-1114
-804
-513
-227
17
364
965
1575
1920
2049
2192
2446
2631
2640
2561
2486
2435
2366
2263
2167
2237
2580
2974
3134
2963
2520
1972
1430
889
254
-498
-1176
-1665
-2023
-2369
-2784
-3220
-3648
-4285
-5264
-6222
-6829
-7025
-6788
-6191
-5380
-4453
-3216
-1559
47
1232
2052
2707
3296
3669
3800
3844
3891
3913
3812
3598
3373
3218
3135
3023
2814
2523
2185
1862
1617
1407
1064
550
89
-173
-299
-475
-821
-1219
-1541
-1771
-1896
-1988
-2217
-2647
-3123
-3444
-3475
-3141
-2478
-1509
-392
462
934
1223
1517
1832
1966
1819
1505
1137
790
541
427
465
590
604
414
93
-421
-1222
-2063
-2677
-2990
-2947
-2546
-1891
-1121
-232
699
1344
1584
1599
1556
1512
1410
1234
1044
871
720
618
577
555
408
57
-336
-616
-770
-833
-813
-670
-374
60
690
1476
2094
2386
2463
2411
2274
2036
1661
1178
614
35
-357
-528
-668
-1141
-2156
-3376
-4472
-5568
-6593
-6929
-6305
-5047
-3328
-1339
354
1530
2685
4074
5132
5475
5319
4912
4391
3843
3293
2723
2050
1262
556
56
-296
-659
-1122
-1532
-1763
-1883
-2111
-2592
-3175
-3689
-4059
-4125
-3733
-2948
-1765
-299
843
1389
1620
1786
1953
2089
2199
2341
2540
2684
2609
2368
2136
1981
1903
1881
1862
1747
1436
929
328
-232
-784
-1414
-2015
-2497
-2864
-3162
-3383
-3383
-3175
-2983
-2926
-2921
-2902
-2866
-2705
-2280
-1597
-774
299
1652
2724
3130
3095
3014
3135
3397
3571
3501
3183
2748
2343
1987
1643
1277
847
392
-37
-457
-932
-1361
-1483
-1335
-1229
-1316
-1518
-1767
-2014
-2144
-2083
-1897
-1731
-1696
-1772
-1778
-1531
-1003
-304
337
695
790
789
818
918
1005
1011
890
625
336
123
-37
-248
-511
-657
-630
-571
-625
-777
-811
-549
33
1148
2737
4023
4625
4804
4665
4146
3367
2549
1732
714
-518
-1562
-2247
-2742
-3262
-3902
-4486
-4904
-5284
-5617
-5618
-5189
-4465
-3313
-1712
-243
769
1758
2962
3879
4232
4292
4388
4642
4841
4835
4689
4460
4099
3539
2831
2082
1203
153
-773
-1430
-1936
-2387
-2781
-3075
-3356
-3847
-4558
-5095
-5194
-4929
-4448
-3872
-3245
-2568
-1703
-591
471
1272
1835
2282
2726
3073
3231
3242
3201
3192
3156
3022
2821
2596
2331
2003
1606
1069
398
-162
-476
-644
-837
-1103
-1299
-1373
-1449
-1735
-2321
-2955
-3402
-3629
-3595
-3262
-2743
-2169
-1338
-140
1002
1849
2562
3140
3341
3105
2614
1946
1147
454
-2
-296
-516
-759
-1084
-1456
-1713
-1674
-1348
-907
-466
-26
391
673
857
1140
1677
2299
2500
2141
1536
836
126
-366
-679
-1030
-1569
-2251
-2750
-2926
-2917
-2807
-2571
-2246
-1971
-1638
-1033
-332
198
661
1190
1578
1710
1763
1987
2449
2894
3157
3240
3075
2633
2041
1443
911
343
-347
-964
-1318
-1452
-1423
-1216
-908
-624
-338
-38
125
66
-102
-136
130
585
1037
1384
1527
1409
1130
819
518
245
4
-182
-283
-328
-375
-413
-405
-390
-429
-528
-638
-667
-576
-394
-235
-273
-529
-833
-1049
-1184
-1267
-1272
-1225
-1327
-1656
-1899
-1879
-1785
-1723
-1458
-795
52
825
1458
1988
2525
3025
3300
3279
2968
2412
1740
1001
176
-600
-1219
-1690
-2049
-2335
-2477
-2389
-2179
-2108
-2241
-2376
-2277
-1778
-950
-128
412
567
353
-45
-343
-440
-511
-719
-1037
-1353
-1583
-1777
-1892
-1631
-911
82
1447
3120
4433
5068
5201
4895
4265
3583
2986
2260
1262
267
-509
-1111
-1729
-2468
-2985
-2953
-2414
-1327
234
1668
2616
3270
3685
3693
3345
2852
2299
1731
1224
789
391
-4
-412
-770
-993
-1079
-1139
-1253
-1340
-1305
-1174
-981
-727
-550
-634
-1029
-1517
-1734
-1659
-1574
-1635
-1737
-1679
-1439
-1019
-405
230
704
935
814
385
-41
-292
-480
-834
-1416
-1947
-2227
-2269
-2121
-1917
-1786
-1720
-1687
-1669
-1563
-1265
-766
-80
708
1404
1959
2418
2776
3017
3091
2999
2768
2424
2082
1885
1887
2029
2158
2087
1784
1362
828
149
-540
-1121
-1551
-1822
-2002
-2171
-2343
-2478
-2513
-2373
-2025
-1504
-759
166
949
1425
1766
2097
2318
2368
2276
1933
1289
580
31
-341
-704
-1229
-1845
-2444
-2989
-3431
-3662
-3539
-3138
-2581
-1920
-1309
-798
-295
417
1411
2275
2735
2931
3055
3155
3109
2905
2716
2649
2629
2577
2503
2311
1861
1229
580
-33
-696
-1349
-1689
-1662
-1456
-1144
-794
-507
-223
90
149
-257
-845
-1312
-1731
-2184
-2539
-2759
-2936
-3112
-3251
-3257
-3143
-2997
-2824
-2552
-2168
-1707
-1004
37
1050
1725
2157
2616
3195
3628
3765
3749
3688
3553
3370
3205
3006
2668
2187
1641
1110
579
28
-443
-795
-1065
-1290
-1497
-1654
-1765
-1810
-1687
-1375
-1003
-660
-292
89
316
341
295
280
292
277
235
191
120
-5
-139
-227
-265
-275
-273
-275
-291
-312
-323
-328
-339
-356
-374
-398
-437
-486
-535
-573
-594
-593
-553
-475
-379
-288
-216
-155
-94
-28
42
102
138
161
195
254
324
365
362
342
335
353
374
382
373
359
347
316
243
144
20
-126
-242
-296
-320
-345
-352
-335
-310
-263
-175
-56
63
160
213
221
210
205
217
247
277
281
255
221
193
170
148
126
108
94
82
73
67
64
67
77
85
90
94
86
54
17
-7
-30
-55
-75
-89
-111
-133
-149
-167
-176
-160
-133
-136
-182
-231
-232
-178
-91
-5
32
17
-11
-46
-89
-126
-148
-136
-55
67
143
157
156
156
145
114
72
40
50
111
176
217
243
229
156
64
-15
-91
-183
-265
-273
-216
-134
-25
109
220
275
284
215
28
-213
-407
-524
-610
-679
-646
-464
-202
37
162
113
-49
-210
-299
-302
-261
-209
-114
45
219
326
367
398
458
531
572
571
558
541
487
361
204
92
29
-35
-104
-142
-106
-3
79
96
76
47
29
41
74
113
156
191
187
149
101
36
-54
-140
-202
-241
-247
-204
-135
-92
-105
-205
-395
-597
-743
-818
-804
-698
-545
-397
-270
-142
-19
69
132
205
302
387
388
299
187
105
67
64
74
88
114
155
211
277
332
366
376
353
306
267
238
195
143
94
53
28
19
13
-1
-18
-34
-55
-88
-122
-137
-133
-131
-148
-177
-186
-161
-136
-126
-115
-106
-106
-103
-83
-57
-61
-93
-103
-79
-46
-10
22
37
38
43
41
23
10
4
-2
-1
15
25
14
3
7
15
10
2
11
19
15
9
5
2
9
25
33
30
23
14
7
6
5
9
20
25
18
8
4
0
-12
-25
-17
4
25
39
49
52
41
26
17
6
-8
-14
-12
-7
-6
-16
-22
-14
-4
0
2
0
-3
-1
-3
-13
-19
-5
14
13
-14
-36
-36
-26
-19
-18
-14
2
21
24
17
11
12
26
40
39
34
36
33
15
-8
-19
-15
-11
-16
-11
9
29
38
31
10
-6
-19
-37
-55
-57
-40
-16
2
8
-4
-17
-20
-18
-16
-14
-8
1
9
10
13
35
63
65
34
-2
-17
-13
-3
3
8
23
45
48
30
9
1
-3
-7
-10
-21
-39
-48
-34
-8
-11
-48
-79
-86
-87
-89
-91
-79
-42
1
19
9
-5
-17
-32
-43
-38
-19
-1
14
26
29
31
40
48
48
42
44
61
76
85
98
115
114
85
41
10
6
0
-15
-16
-12
-20
-32
-50
-65
-67
-50
-18
7
6
-12
-23
-20
-24
-45
-66
-68
-46
-22
-12
-12
-16
-13
2
20
29
23
13
6
7
13
18
27
41
57
68
71
83
109
121
95
59
35
22
7
-8
-17
-21
-28
-36
-38
-37
-37
-41
-54
-61
-52
-44
-53
-69
-73
-63
-45
-20
-6
-13
-27
-36
-41
-42
-41
-42
-37
-22
-11
-11
-4
21
44
47
41
35
30
24
16
13
14
14
13
14
25
45
63
64
55
51
51
50
42
27
17
15
14
13
7
7
21
38
44
36
24
14
10
6
2
10
31
40
19
-13
-26
-18
-12
-26
-46
-54
-48
-39
-39
-43
-37
-22
-12
-18
-41
-56
-52
-42
-37
-43
-35
0
37
45
36
27
20
14
4
-6
-5
10
20
7
-17
-32
-36
-36
-40
-40
-27
-8
-2
-13
-26
-27
-20
-17
-16
-12
-1
9
12
5
6
21
28
14
2
0
-7
-17
-20
-21
-27
-28
-22
-16
-10
5
40
112
208
265
265
241
217
188
139
73
0
-68
-123
-163
-195
-223
-254
-294
-335
-369
-394
-389
-339
-262
-187
-119
-39
68
183
283
354
360
289
192
120
85
71
53
35
41
84
162
242
262
211
144
104
79
34
-26
-69
-65
-15
31
43
49
80
137
195
231
236
214
169
110
55
2
-61
-136
-208
-251
-281
-342
-410
-456
-480
-463
-377
-242
-112
-21
40
85
102
107
140
176
151
59
-35
-87
-96
-95
-117
-170
-231
-278
-287
-258
-229
-225
-207
-106
76
301
512
638
655
592
487
372
263
166
105
81
59
8
-63
-123
-187
-290
-435
-585
-668
-658
-591
-517
-478
-455
-395
-234
41
323
513
608
631
620
606
591
567
539
506
457
399
348
302
247
181
116
59
-4
-80
-142
-181
-207
-220
-232
-242
-233
-205
-184
-178
-184
-196
-201
-186
-155
-123
-98
-71
-39
-5
19
34
46
53
54
43
23
8
7
19
18
-4
-25
-37
-45
-39
-12
18
46
74
86
78
69
56
20
-29
-70
-88
-89
-93
-99
-105
-110
-126
-169
-225
-270
-314
-362
-381
-344
-278
-205
-115
-8
105
213
297
343
353
345
338
323
279
217
158
114
83
66
68
77
86
111
163
203
215
228
277
327
290
165
37
-40
-74
-89
-95
-79
-48
-37
-54
-70
-72
-76
-92
-117
-138
-153
-183
-244
-317
-376
-405
-393
-352
-296
-234
-168
-111
-78
-59
-35
-4
13
10
0
1
11
18
22
26
37
47
30
-6
-25
3
76
146
169
157
148
158
172
183
207
246
284
307
300
270
234
188
127
62
3
-46
-86
-120
-151
-171
-170
-172
-213
-264
-291
-306
-323
-329
-293
-210
-103
19
147
227
222
174
147
154
166
171
174
167
145
110
65
35
25
3
-30
-48
-42
-27
-27
-45
-61
-51
-28
-16
-23
-42
-54
-56
-48
-35
-24
-15
-16
-23
-25
-12
8
24
26
18
6
-4
-9
-8
-10
-16
-13
1
12
10
8
15
19
6
-7
-3
7
15
13
-1
-11
-9
-4
1
5
13
19
15
6
-3
-7
-6
-5
-10
-20
-29
-35
-40
-44
-43
-33
-3
41
73
78
70
60
54
48
32
10
-2
-3
4
15
11
-29
-103
-166
-201
-212
-178
-104
-47
-26
-13
7
30
35
28
29
45
58
52
32
20
21
30
48
70
83
86
90
95
93
90
97
105
92
64
42
27
4
-29
-61
-75
-72
-71
-77
-82
-70
-38
-2
10
-4
-16
10
61
72
31
-18
-29
9
57
80
78
69
63
54
30
-11
-68
-119
-138
-130
-114
-90
-62
-54
-64
-63
-35
2
17
6
2
23
51
61
56
62
73
63
31
3
-7
-9
-9
-13
-14
0
20
25
14
1
-10
-16
-17
-24
-34
-34
-25
-15
-17
-26
-30
-27
-23
-28
-37
-41
-43
-47
-47
-40
-24
-5
0
-7
-9
3
19
23
18
12
17
31
35
17
-2
-1
16
31
35
28
20
28
54
75
78
68
53
37
25
20
22
17
8
0
2
18
38
46
44
32
14
1
-2
20
72
130
165
161
128
88
52
23
1
-11
-25
-44
-71
-130
-227
-314
-337
-318
-316
-320
-302
-261
-201
-127
-62
-18
12
51
94
114
115
123
137
137
123
104
91
86
74
50
29
35
67
102
118
116
116
139
176
181
140
81
35
10
-3
-18
-28
-27
-24
-31
-42
-46
-47
-54
-63
-65
-54
-35
-23
-21
-22
-19
-13
-5
0
2
6
7
0
-17
-28
-20
-7
-9
-36
-73
-98
-107
-96
-78
-65
-62
-67
-56
-26
5
31
50
65
69
57
44
37
29
8
-3
8
27
42
54
63
72
86
99
113
130
139
124
85
44
20
15
9
-11
-30
-25
-18
-52
-132
-211
-270
-321
-367
-393
-382
-345
-304
-247
-157
-48
63
163
243
295
308
297
284
273
262
238
175
79
0
-38
-63
-104
-145
-185
-227
-239
-210
-137
-19
87
137
149
157
173
176
158
141
130
113
94
81
74
78
88
84
64
50
46
42
29
13
2
-5
-10
-18
-35
-56
-69
-82
-102
-123
-130
-111
-85
-82
-98
-103
-99
-97
-88
-73
-55
-30
-5
10
17
23
26
29
37
46
53
53
49
43
35
26
18
17
13
-2
-15
-10
0
0
-3
0
7
9
4
1
8
21
26
22
16
15
10
-5
-25
-41
-42
-31
-28
-29
-12
13
42
67
80
86
99
125
136
96
15
-58
-100
-120
-131
-131
-121
-121
-144
-169
-168
-140
-108
-92
-81
-57
-27
-7
12
37
53
55
65
92
107
100
88
91
103
103
89
76
65
46
25
15
9
2
-8
-15
-7
9
14
-2
-27
-38
-24
-6
-3
-10
-20
-26
-29
-28
-24
-17
-9
0
30
89
148
172
144
88
41
11
-10
-33
-61
-85
-99
-98
-75
-48
-37
-38
-27
3
38
55
56
59
65
62
42
13
-1
3
6
-15
-47
-56
-34
-8
-7
-33
-60
-69
-66
-61
-61
-69
-82
-102
-131
-152
-149
-132
-114
-99
-78
-47
-12
20
43
52
57
63
63
65
88
119
143
154
152
147
143
132
118
98
73
55
46
37
20
2
-10
-20
-28
-41
-56
-58
-47
-35
-24
-17
-18
-21
-16
-6
-1
5
13
8
-3
-9
-5
2
4
-3
-15
-22
-23
-25
-31
-33
-20
-3
-3
-14
-21
-18
-12
-2
5
7
0
-5
-3
-1
-5
-8
-3
4
5
5
8
7
3
0
-3
-6
-9
-19
-28
-26
-15
4
18
10
-4
-1
7
9
3
-10
-19
-18
-12
-6
-8
-8
3
16
13
3
0
3
1
-6
-12
-9
2
15
23
24
23
27
25
7
-15
-24
-20
-20
-23
-18
-10
-10
-13
-12
-6
4
21
33
27
10
1
9
25
35
29
19
13
10
9
8
14
24
22
5
-8
-13
-12
-9
-12
-24
-32
-28
-15
-5
-4
-9
-18
-22
-19
-14
-14
-17
-16
-14
-11
2
24
38
34
28
35
43
36
19
3
-6
-4
1
-3
-17
-22
-15
-11
-10
-4
10
22
24
15
4
-2
-11
-25
-37
-38
-19
4
15
15
8
1
-4
-14
-24
-25
-17
-10
-15
-30
-43
-38
-21
-10
-9
-14
-15
1
34
55
56
46
38
32
21
7
-5
-11
-5
5
16
50
115
154
123
57
2
-27
-26
0
28
49
60
40
-7
-54
-84
-108
-137
-161
-173
-193
-240
-294
-312
-284
-221
-144
-83
-34
13
56
84
95
92
97
144
220
263
257
241
250
267
252
209
172
156
146
113
66
39
43
61
68
46
11
-22
-64
-112
-149
-178
-219
-266
-283
-262
-223
-182
-158
-155
-159
-157
-107
30
208
350
437
477
453
374
297
253
210
137
59
-3
-50
-95
-158
-247
-345
-441
-535
-604
-631
-627
-619
-619
-600
-517
-342
-71
219
391
424
397
324
193
36
-96
-147
-20
265
512
627
682
716
702
614
481
349
225
97
-16
-83
-100
-99
-112
-144
-196
-265
-322
-347
-346
-354
-388
-383
-291
-164
-36
110
280
430
505
515
507
499
485
447
362
233
91
-33
-129
-193
-262
-382
-521
-650
-773
-846
-830
-761
-681
-596
-471
-284
-122
-47
-18
51
194
325
390
411
416
423
415
362
260
185
240
412
594
710
751
747
713
674
663
645
567
434
285
155
4
-259
-630
-1013
-1331
-1550
-1640
-1576
-1403
-1150
-823
-521
-327
-197
-28
229
533
806
970
1001
947
852
745
647
557
458
350
235
91
-120
-398
-660
-840
-920
-898
-782
-650
-601
-656
-736
-716
-557
-317
-48
231
486
652
727
756
759
750
733
716
707
719
752
759
701
562
331
72
-120
-198
-216
-285
-412
-517
-557
-543
-511
-499
-505
-474
-314
-23
235
355
386
402
432
452
439
398
357
326
246
40
-314
-812
-1278
-1390
-1162
-849
-582
-400
-282
-172
-51
61
149
215
288
450
696
860
886
860
814
722
591
472
402
356
291
209
120
25
-98
-275
-490
-713
-898
-1003
-1049
-1112
-1197
-1136
-827
-435
-110
153
378
539
577
519
448
376
288
217
196
233
314
388
395
329
224
61
-183
-409
-499
-419
-161
171
405
532
627
624
471
286
189
172
134
-33
-292
-497
-544
-397
-132
58
70
-67
-313
-562
-648
-559
-436
-359
-307
-243
-166
-72
50
186
313
426
516
563
545
483
436
451
539
638
684
686
665
612
535
466
408
329
223
115
-29
-278
-738
-1369
-1834
-1960
-1903
-1796
-1615
-1334
-1021
-751
-559
-453
-372
-258
-53
262
572
790
939
1078
1211
1264
1232
1184
1156
1129
1043
888
738
658
600
478
307
167
75
-3
-80
-132
-162
-289
-562
-826
-990
-1083
-1149
-1247
-1359
-1431
-1461
-1427
-1258
-968
-631
-252
119
339
360
310
315
406
550
705
819
865
880
924
1003
1084
1119
1069
991
1013
1244
1563
1679
1553
1314
959
494
89
-143
-275
-427
-630
-795
-882
-946
-1133
-1543
-2058
-2513
-2881
