11072
11052
11066
11081
11082
11078
11073
11076
11077
11054
10923
10826
10739
10685
10649
10677
10736
10844
10978
11098
11291
11327
11391
11435
11421
11415
11280
11169
11058
10959
10858
10777
10825
10862
10898
10957
11021
11100
11107
11118
11132
11124
11129
11147
11164
11162
11072
10801
10654
10515
10484
10572
10740
11040
11140
11188
11207
11206
11146
11143
11151
11188
11194
11181
11311
11379
11390
11322
11211
10990
10894
10796
10737
10732
10738
10760
10771
10788
10820
10945
11132
11143
11136
11119
11120
11167
11208
11241
11248
11211
11159
11064
10998
10989
10993
10992
11006
11000
10965
10869
10780
10725
10696
10693
10709
10685
10638
10581
10653
10768
10918
11115
11328
11397
11493
11583
11629
11634
11611
11547
11437
11306
11190
11056
11005
10982
10997
11000
10974
10837
10806
10758
10727
10756
10833
10836
10817
10783
10754
10757
10794
10855
10934
11022
11076
11148
11175
11174
11201
11207
11146
11111
11020
10866
10719
10647
10631
10641
10659
10682
10709
10878
10987
11086
11183
11267
11352
11463
11460
11475
11499
11522
11425
11323
11220
11093
10918
10582
10491
10429
10417
10463
10588
10842
10981
11115
11197
11224
11256
11303
11340
11362
11352
11365
11185
10973
10804
10746
10730
10688
10713
10787
10877
10959
11085
11121
11150
11137
11086
11028
10981
10933
10912
10896
10876
10881
10969
11059
11117
11159
11189
11206
11200
11208
11176
11133
10991
10931
10861
10835
10861
10912
10974
11025
11068
11080
11074
11087
11044
10952
10851
10774
10664
10671
10725
10801
10875
10916
10798
10786
10823
10854
10874
10973
11075
11190
11292
11352
11338
11251
11255
11259
11207
11162
11056
10991
10928
10893
10868
10828
10825
10892
10993
11081
11151
11103
11061
11034
11002
10978
10876
10893
10945
11000
11043
11054
10936
10925
10925
10933
10959
11048
11077
11111
11096
10996
10845
10602
10534
10543
10589
10690
10882
11000
11145
11224
11246
11281
11345
11443
11490
11490
11462
11466
11385
11220
11039
10896
10714
10694
10693
10742
10811
10917
11092
11120
11104
11069
11038
11008
11001
11004
10982
10937
10729
10651
10606
10591
10619
10687
10827
10856
10880
10892
10955
11131
11210
11193
11159
11180
11241
11216
11144
11095
11044
10986
10967
11005
11035
11062
11055
10992
10951
10870
10829
10861
10922
10981
11009
11037
11058
11114
11218
11266
11244
11088
10950
10852
10884
10923
10836
10694
10595
10590
10596
10613
10629
10663
10733
10984
11098
11186
11240
11276
11395
11445
11457
11432
11412
11301
11201
11040
10887
10819
10756
10819
10874
10954
11032
11067
11200
11298
11419
11528
11567
11596
11426
11259
11085
10885
10659
10334
10276
10290
10373
10523
10826
10955
11046
11098
11134
11136
11083
10975
10828
10773
10796
10789
10743
10727
10734
10724
10722
10734
10770
10817
10874
10894
10879
10913
11019
11155
11261
11326
11293
11277
11264
11270
11268
11211
11123
11046
11003
11004
10887
10830
10800
10751
10703
10708
10926
11058
11217
11318
11386
11449
11423
11384
11396
11436
11377
11090
10912
10746
10606
10499
10513
10630
10729
10750
10719
10751
10815
10867
10880
10877
10859
10861
10840
10821
10813
10823
10763
10759
10834
10928
10992
11046
11190
11218
11240
11230
11154
11037
11080
11141
11212
11240
11157
11099
11067
11013
10950
10918
10911
10878
10833
10673
10506
10552
10707
10870
11047
11165
11209
11207
11210
11194
11195
11212
11157
11057
10975
10910
10872
10881
10807
10803
10878
10923
10898
10901
10932
10972
11033
11108
11190
11146
11116
11050
10961
10893
10917
10903
10868
10894
10948
11024
11084
11099
11025
10966
10909
10814
10801
10841
10878
10940
11102
11114
11132
11147
11152
11079
11027
11028
11040
11032
11008
10943
10893
10843
10837
10876
10695
10632
10660
10728
10831
10933
10988
10982
11008
10993
10963
11014
11087
11184
11262
11287
11239
11041
10958
10905
10859
10883
11001
10992
11007
10995
10973
11070
11146
11169
11166
11130
11054
10770
10700
10649
10587
10506
10616
10662
10732
10811
10941
11106
11423
11439
11408
11330
11259
11270
11262
11205
11201
11229
11071
10940
10882
10852
10799
10752
10685
10633
10561
10525
10538
10573
10531
10528
10590
10749
10933
11086
11136
11189
11301
11483
11657
11536
11412
11318
11227
11113
11077
11007
10933
10866
10823
10657
10617
10615
10563
10541
10588
10715
10779
10817
10841
10886
10935
11042
11208
11336
11380
11410
11351
11277
11224
11143
11028
10883
10877
10879
10888
10919
11084
11163
11241
11267
11238
11108
11055
10998
10908
10857
10839
10759
10857
11031
11205
11321
11408
11390
11343
11258
11167
11073
10905
10783
10637
10503
10361
10243
10290
10451
10597
10664
10702
10722
10772
10890
11028
11115
11193
11214
11204
11161
11105
10969
10954
10950
10955
10991
11053
11151
11108
11049
10973
10932
11057
11122
11113
11153
11218
11219
11113
11082
11061
11060
11073
11072
11039
11019
11037
11106
11206
11164
11073
11005
10917
10814
10670
10662
10638
10620
10666
10791
10828
10845
10863
10870
10894
10962
10958
10955
10941
10957
11024
11085
11169
11245
11264
11379
11446
11488
11581
11690
11816
11841
11764
11607
11451
11322
11077
10912
10674
10372
10035
9743
9536
9568
9634
9664
9782
9956
10138
10295
10415
10521
10635
10945
11098
11266
11450
11620
11777
11947
11946
11923
11877
11813
11671
11543
11439
11380
11386
11418
11311
11193
11039
10864
10688
10470
10408
10383
10382
10356
10377
10482
10557
10692
10750
10762
10784
10726
10635
10634
10761
11140
11374
11567
11663
11703
11748
11942
12066
12161
12164
12064
11737
11476
11189
10875
10555
10271
9896
9808
9760
9705
9651
9673
9726
9798
9890
10046
10255
10438
10575
10843
11026
11210
11404
11563
11633
11648
11602
11594
11652
11753
11911
11905
11822
11697
11577
11507
11436
11422
11419
11349
11261
11081
11007
10915
10811
10729
10509
10312
10194
10222
10340
10420
10417
10379
10315
10256
10235
10393
10535
10741
10969
11134
11222
11559
11771
11902
12012
12076
12038
11989
11878
11700
11489
11128
10906
10606
10292
10016
9790
9667
9655
9703
9843
10251
10382
10494
10604
10742
10893
11184
11306
11354
11360
11342
11475
11600
11669
11609
11394
11207
11229
11365
11541
11705
11789
11707
11584
11438
11343
11264
11122
11003
10756
10402
10035
9754
9634
9665
9731
9802
9937
10167
10300
10521
10800
10994
11169
11576
11746
11854
11857
11763
11431
11357
11409
11498
11664
12003
12407
12399
12288
12094
11779
11059
10735
10430
10225
10077
9681
9469
9334
9215
9200
9319
9509
9824
10136
10321
10481
10718
10987
11529
11839
12133
12312
12391
12384
12250
12199
12134
12015
11924
11565
11204
10798
10358
9954
9648
9448
9444
9559
9727
9916
10145
10436
10528
10654
10893
11276
12016
12157
12291
12328
12234
12158
12076
11926
11686
11342
10867
10111
9943
9882
9880
9988
10241
10558
10866
11056
11322
11579
11740
11725
11569
11293
10529
10143
9887
9783
9653
9572
9644
9782
9868
10008
10232
10862
11198
11497
11690
11780
11791
11654
11657
11746
11826
11911
12183
12425
12652
12725
12705
12658
12550
12310
11925
11446
10940
10005
9553
9188
8901
8606
8417
8495
8736
8881
8999
9428
10098
10760
11315
11729
12060
12108
12165
12212
12291
12476
12449
12308
12056
11724
11027
10803
10599
10405
10298
10269
10461
10586
10568
10406
10231
10090
10324
10743
11334
12030
12770
12986
12523
11870
11307
10933
11099
11185
11041
10714
10349
9991
9360
9111
8987
9154
9525
9915
10310
10711
11078
11419
11693
12088
12228
12207
12102
12298
12710
12557
12168
11965
11894
11840
11449
11146
10532
9955
9458
8899
8766
8972
9221
9460
9549
9596
9793
10055
10138
9533
9350
9254
9245
9261
9337
9381
9441
9792
10411
10940
11448
12019
13586
14259
14543
14358
14058
13873
13327
13207
13090
12934
12621
11557
10747
10003
9334
8724
8269
8140
8407
8696
8809
8903
9158
9350
9440
9419
9562
10002
10879
12576
13198
13699
14098
14261
13858
13339
12751
12134
11643
11169
10711
10295
10023
9736
9554
9679
9960
10082
9922
9668
9655
9822
9871
9715
9432
9280
9501
9873
10283
10770
11129
11338
11569
12436
12664
12791
12829
12810
12469
12034
11508
11210
11181
11152
10882
10755
10669
10690
10764
10868
10920
11024
11010
10907
10801
11227
11265
11228
11047
10868
11183
11671
12244
12710
12878
12706
12102
12092
11897
11390
10723
8967
8271
7959
8150
8276
8214
8259
8618
9305
9691
9620
9556
9770
10111
10580
11177
11623
12291
12464
12691
12874
13139
13489
13858
13950
14067
13951
13632
12709
12124
11469
10805
10089
9339
7870
7509
7532
7749
7939
8115
8366
8945
9717
10368
11008
11880
12355
12387
12771
13829
15021
15823
15960
15410
13505
12451
11396
10281
9099
7833
6421
4952
3774
3132
4359
6044
8027
10100
12046
13628
14788
15423
15529
14506
13740
13004
12213
11566
10232
9980
10148
10189
10146
10374
12423
13641
14281
14005
13136
12083
9314
8369
8105
8306
8819
9217
9762
10633
11394
11847
11850
11783
12134
12534
12909
12695
11900
10373
9666
9142
8928
9262
10159
11322
12173
12571
13067
13229
13419
13373
13090
12252
11273
10021
8523
7036
5925
5527
5600
6248
7406
8819
10434
12206
14726
15037
15067
15085
15038
14637
12946
11705
10368
9355
8558
8148
8147
8378
8941
9790
10917
12341
12496
12188
11761
11294
10577
8882
8365
8004
7793
7815
8411
9082
9461
10273
11528
12674
13893
15222
16217
15699
14891
14043
13132
11162
10077
9246
8690
8050
7373
7074
7334
7947
8946
10062
10930
12140
14396
14598
14379
14111
14243
14268
13508
12259
10712
9181
7740
6429
5874
6197
7167
8326
9493
10570
11419
11432
11115
10367
9543
8795
8042
7782
8853
10969
14274
14547
14357
14043
13720
13129
12683
11968
10977
10352
10244
10261
11250
12658
13607
13818
12442
11102
9514
8061
7053
6586
7224
8931
10408
11232
11626
12396
12650
12580
12325
11864
11234
10269
9635
9131
8981
9329
9878
10500
11395
12320
12795
11825
10847
9670
8626
8366
9286
11165
13463
15337
15822
15147
14628
14186
13684
11814
10144
8069
5790
3803
2665
2841
4192
6414
8835
10709
12043
12941
13319
13036
12584
12079
11452
10514
10550
10466
10418
10984
12354
14021
13998
13918
13673
13298
12555
12377
12107
11429
10535
8620
8284
8474
8924
9194
9237
9111
9004
9120
9717
10649
11445
11819
11880
11878
12390
12636
12867
13333
13888
14349
14546
14309
14066
14156
14054
12192
10899
9228
7142
5022
3445
2759
2727
3256
4478
6151
7718
9179
10476
11403
12614
13015
13300
13448
13314
12996
13036
13577
13745
13480
13073
12725
12509
12218
11967
11724
11564
11484
11553
11739
11952
12057
11415
11024
10755
10657
10666
10955
10895
10794
10664
10569
10605
10809
10865
10714
10224
9507
9070
8903
9006
9470
10241
11685
12288
12613
12751
12831
11876
10822
9650
8488
7606
7018
6823
7196
7947
8908
9897
10532
10790
11098
12171
12625
12869
13205
13460
13140
12750
12430
12343
12492
12564
11894
11434
11037
10610
10315
10540
10911
10980
10762
10480
9789
9284
9234
9757
10413
10872
11334
11854
12207
12403
12294
12093
11878
11631
11379
10963
10710
10364
9953
9704
9798
9981
10097
10235
10862
11136
11451
11763
11903
11713
11560
11443
11409
11406
11405
11430
11413
11220
11030
10857
10676
10687
10783
10854
10812
10708
10356
10216
10201
10259
10323
10603
10763
10926
11093
11172
11199
11396
11468
11498
11601
11861
12360
12451
12542
12677
12616
11819
11069
10160
9324
8718
8395
8355
8662
9181
9676
10034
10322
10502
10466
10560
10720
10782
10764
11084
11346
11548
11670
11717
11728
11786
11856
11883
11901
12031
12049
11976
11853
11700
11541
11199
11154
11128
10979
10784
10495
10483
10529
10601
10825
11206
11286
11116
10991
10874
10723
10172
9856
9639
9536
9698
10102
10541
10865
11101
11322
11355
11386
11384
11343
11294
11201
11199
11263
11304
11333
11341
11516
11796
11891
11842
11619
11520
11471
11463
11483
11442
11121
11017
10944
10872
10869
10846
10704
10499
10319
10177
10094
10361
10403
10351
10345
10506
10806
10805
10782
10678
10486
10456
10556
10569
10557
10603
10675
10912
11095
11313
11513
11689
11794
11842
11987
12144
12250
12295
12241
12072
11840
11628
11346
10752
10558
10329
10059
9898
9732
9621
9679
9839
10015
10416
10615
10830
11017
11184
11300
11393
11373
11387
11400
11326
11216
11168
11118
11079
11086
11108
11027
10960
10966
11049
11151
11278
11273
11250
11242
11242
11219
11219
11233
11215
11148
11065
11085
11120
11151
11127
11058
10923
10836
10736
10695
10723
10762
10810
10841
10849
10819
10784
10723
10810
10971
11083
11138
11241
11325
11459
11529
11599
11685
11833
11841
11771
11649
11457
11073
10895
10691
10349
9932
9600
9477
9559
9666
9794
10026
10645
10880
11096
11366
11540
11637
11685
11732
11683
11601
11591
11634
11526
11463
11365
11148
10858
10914
10997
10983
10878
10728
10461
10498
10422
10297
10345
10850
11059
11114
11099
11057
10987
10916
10886
10822
10760
10738
10857
10956
10984
10958
10892
10876
10869
10808
10763
10778
10828
11127
11289
11432
11499
11555
11607
11570
11519
11444
11354
11274
11135
11066
11003
10975
10982
10883
10816
10789
10787
10826
10874
10890
10896
10944
11010
11066
11127
11145
11140
11147
11161
11171
11145
11114
11099
11071
11038
11060
11104
11149
11177
11149
11011
10935
10886
10884
10876
10871
10887
10913
10975
11032
11044
10950
10962
10967
10978
10956
10821
10773
10808
10884
10974
11036
10930
10899
10871
10852
10852
10946
11023
11109
11228
11316
11319
11402
11476
11526
11508
11453
11437
11509
11526
11426
11235
10641
10421
10428
10521
10513
10310
9931
9866
9855
9909
10005
10181
10392
10574
10804
11159
11231
11253
11278
11333
11404
11425
11445
11455
11458
11460
11458
11434
11423
11395
11354
11324
11307
11299
11300
11271
11257
11243
11235
11176
11113
11090
11096
11108
11074
11037
11000
10964
10938
10936
10898
10826
10758
10683
10674
10671
10690
10734
10899
10908
10889
10887
10903
10943
10849
10932
11107
11227
11220
11108
11004
10928
10882
10850
10924
10946
10935
10884
10779
10629
10577
10632
10635
10673
10795
11124
11175
11189
11216
11244
11297
11474
11586
11644
11651
11624
11552
11508
11452
11379
11309
11149
11016
10852
10654
10411
10164
9896
9929
10059
10184
10310
10469
10605
11003
11150
11239
11307
11370
11427
11391
11312
11228
11148
11112
11176
11237
11287
11318
11344
11426
11463
11450
11424
11433
11465
11572
11602
11580
11501
11414
11175
11030
10862
10663
10420
10163
9947
9927
9984
10050
10123
10227
10360
10475
10620
10713
10830
10942
11039
11193
11269
11368
11467
11530
11614
11708
11710
11660
11591
11509
11317
11228
11199
11194
11207
11095
11044
10971
10884
10770
10683
10642
10636
10648
10672
10735
10945
11055
11194
11318
11446
11545
11690
11788
11861
11811
11661
11302
11054
10756
10463
10170
9918
9500
9504
9641
9744
9835
10006
10230
10482
10701
10846
11075
11164
11199
11202
11245
11290
11376
11414
11460
11475
11445
11420
11445
11461
11462
11448
11400
11312
11287
11287
11306
11349
11396
11382
11360
11315
11253
11158
11125
11135
11142
11158
11153
11062
10995
10941
10887
10865
10788
10740
10688
10663
10654
10654
10763
10824
10817
10778
10732
10688
10741
10820
10920
11013
11081
11194
11282
11341
11384
11423
11509
11510
11472
11405
11343
11344
11386
11396
11326
11179
11003
10643
10470
10307
10154
10067
9886
9924
10041
10220
10438
10644
10827
11164
11339
11485
11609
11666
11722
11806
11803
11750
11643
11484
11158
10994
10874
10775
10684
10637
10600
10620
10674
10727
10789
10877
10884
10921
10966
11028
11090
11185
11208
11209
11224
11267
11295
11307
11353
11397
11364
11239
11177
11104
11016
10880
10710
10611
10657
10737
10767
10759
10685
10670
10691
10748
10805
10853
10915
10911
10924
10971
11051
11153
11204
11262
11319
11339
11356
11364
11366
11343
11330
11337
11389
11411
11416
11389
11308
11121
11052
10952
10845
10755
10690
10582
10575
10589
10634
10680
10644
10592
10595
10614
10657
10730
10935
11015
11041
11080
11158
11366
11479
11588
11681
11741
11823
11832
11811
11743
11623
11475
11064
10878
10727
10575
10479
10319
10287
10251
10259
10297
10301
10316
10356
10414
10478
10541
10795
10921
11022
11112
11226
11359
11412
11476
11530
11568
11620
11687
11691
11657
11578
11474
11273
11144
11008
10894
10785
10704
10655
10674
10681
10685
10672
10750
10837
10903
10946
11008
11128
11163
11201
11261
11355
11429
11413
11355
11273
11176
11086
10931
10883
10864
10866
10869
10894
11020
11087
11126
11146
11085
10854
10823
10822
10840
10834
10811
10718
10748
10786
10820
10862
10871
10843
10803
10815
10886
11088
11198
11305
11433
11598
11767
11868
11810
11700
11581
11473
11218
11051
10943
10919
10918
10907
10729
10637
10557
10507
10408
10327
10339
10376
10404
10376
10234
10242
10317
10474
10675
10860
11158
11268
11372
11437
11495
11520
11492
11459
11450
11456
11427
11272
11197
11181
11189
11213
11221
11216
11197
11174
11143
11079
11071
11053
11031
10995
10971
10876
10847
10807
10771
10754
10833
10856
10874
10885
10863
10833
10839
10913
10980
11047
11096
11250
11325
11380
11435
11496
11542
11463
11386
11275
11129
10985
10831
10795
10792
10800
10808
10868
10857
10872
10913
10976
10965
10791
10696
10679
10689
10672
10660
10730
10859
10965
11055
11128
11217
11222
11201
11181
11170
11235
11220
11241
11270
11287
11261
11241
11215
11159
11074
11009
10958
10936
10931
10955
10988
11053
11056
11029
11013
11018
10985
10856
10830
10844
10840
10838
10905
10984
11074
11127
11149
11128
11105
11084
11059
11014
11006
11018
11072
11136
11201
11234
11199
11171
11119
11042
10973
10975
10960
10956
10957
10949
10934
10879
10881
10923
10977
10998
10985
10895
10887
10903
10869
10804
10740
10793
10893
10971
11034
11078
11124
11211
11319
11364
11327
11198
11179
11157
11085
11002
10830
10796
10827
10873
10880
10951
11142
11186
11165
11085
10974
10771
10733
10766
10791
10784
10805
10841
10859
10906
10964
11038
11160
11219
11264
11265
11191
11022
10970
10947
10936
10951
10983
11074
11111
11164
11208
11253
11322
11305
11240
11192
11142
11136
11074
11042
11001
10961
10948
10999
11005
11011
11023
11022
11087
11105
11106
11109
11112
11049
10902
10909
10978
11001
10952
10785
10818
10863
10875
10884
10874
10896
10947
11001
11036
11088
11183
11237
11275
11304
11303
11274
11246
11182
11093
10997
10911
10847
10835
10806
10777
10818
11015
11086
11076
11045
10991
10930
10868
10914
10988
11054
11097
11042
10957
10875
10860
10904
10982
11010
11003
11053
11128
11191
11237
11249
11261
11223
11160
11030
11012
10971
10896
10822
10770
10685
10679
10706
10774
10857
10943
10994
11066
11130
11166
11182
11253
11277
11270
11216
11101
10932
10893
10829
10770
10733
10911
11052
11143
11182
11160
11092
10972
10953
10980
11037
11111
11246
11315
11368
11361
11325
11317
11380
11406
11396
11364
11332
11064
10857
10637
10467
10358
10561
10709
10811
10851
10883
10948
10997
11007
11037
11047
11050
11072
11059
11068
11085
11110
11166
11213
11141
11078
11007
10910
10890
10942
10979
10998
11012
11002
10972
10940
10937
10920
10917
11035
11129
11197
11242
11234
11221
11174
11113
11060
11001
10962
10962
10997
11021
11023
11016
11072
11080
11082
11049
11004
10953
10843
10826
10848
10917
10987
11043
11020
11000
10964
10908
10843
10864
10856
10824
10815
10827
10881
10922
10973
11029
11095
11248
11270
11296
11336
11379
11395
11300
11261
11239
11268
11285
11200
11135
11074
10994
10923
10883
11036
11133
11218
11265
11197
10981
10922
10865
10782
10727
10712
10697
10605
10562
10602
10716
10931
11040
11071
11080
11147
11380
11407
11381
11348
11350
11362
11292
11257
11183
11095
11051
11071
11089
11074
11046
11016
11031
11043
10980
10919
10891
10871
10859
10872
10875
10839
10853
10854
10857
10857
10814
10715
10708
10894
11006
11112
11266
11374
11381
11334
11265
11184
11134
11095
10990
10962
10959
10982
11033
11024
10985
11012
11044
11077
11077
11080
11071
11041
10990
10976
10991
11020
11044
11051
11099
11204
11187
11123
11073
11008
10947
10876
10897
10906
10896
10927
10886
10874
10886
10929
10990
11074
11072
11055
11003
10941
10885
10884
10861
10879
10985
11121
11376
11411
11403
11346
11311
11281
11148
11092
11044
10991
10941
10816
10750
10704
10693
10746
10972
11040
11069
11099
11103
11096
11105
11129
11140
11143
11145
11107
11077
11052
11064
11079
11139
11253
11267
11255
11265
11290
11342
11297
11208
11138
11079
10959
10702
10631
10642
10679
10712
10739
10750
10719
10702
10731
10845
10925
11017
11071
11083
11097
11110
11094
11087
11076
11038
10945
10968
11029
11082
11162
11275
11385
11396
11373
11321
11302
11331
11259
11127
10967
10840
10704
10707
10731
10789
10825
10835
10773
10799
10940
11131
11255
11291
11253
11198
11186
11159
11106
11102
11126
11132
11101
11070
11036
11056
11094
11134
11150
11145
10968
10899
10885
10879
10868
10902
10947
10946
10925
10882
10798
10788
10848
10936
10990
11008
11036
11088
11107
11094
11088
11164
11197
11188
11107
11017
10968
10959
11003
11062
11095
11069
11056
11054
11043
11050
11098
11160
11203
11225
11245
11239
11222
11187
11107
11067
11045
11033
10895
10880
10927
10976
10979
10971
10893
10860
10861
10839
10793
10846
10961
11097
11221
11317
11401
11417
11410
11369
11247
11119
10900
10826
10766
10715
10632
10499
10508
10578
10663
10736
10831
11115
11261
11398
11489
11524
11482
11414
11361
11300
11274
11273
11226
11180
11138
11058
10947
10954
10991
11009
10955
10792
10540
10501
10487
10527
10611
10721
10890
10953
10988
10945
10880
10921
11013
11112
11232
11332
11413
11441
11363
11260
11132
11051
11023
11080
11150
11191
11221
11248
11247
11265
11271
11268
11264
11304
11328
11304
11234
11099
10740
10654
10609
10556
10510
10483
10518
10585
10648
10723
10852
11129
11181
11185
11104
10950
10824
10718
10699
10743
10851
10970
11122
11168
11218
11269
11341
11432
11377
11201
10964
10839
10837
10975
11034
11045
10991
10953
10970
11023
11068
11145
11238
11340
11446
11442
11377
11302
11221
11016
10941
10917
10919
10923
10938
10936
10997
11092
11243
11347
11269
11144
11042
10950
10825
10588
10549
10600
10611
10630
10721
11001
11071
11126
11175
11237
11362
11438
11491
11517
11486
11246
11153
11054
10957
10820
10684
10524
10547
10605
10711
10825
11099
11148
11185
11245
11230
11198
10948
10820
10698
10577
10503
10485
10482
10490
10525
10635
10780
10956
11041
11107
11154
11151
11415
11617
11746
11748
11687
11535
11442
11305
11150
10986
10793
10449
10340
10295
10315
10366
10562
10747
10897
11027
11133
11260
11401
11352
11252
11198
11245
11380
11381
11313
11246
11165
11034
10990
10916
10815
10800
10854
11036
11135
11212
11230
11210
11058
10925
10785
10661
10596
10618
10712
10692
10707
10772
10869
11077
11181
11264
11309
11325
11317
11314
11272
11204
11091
10946
10666
10530
10419
10381
10426
10446
10491
10627
10859
11099
11295
11444
11390
11282
11150
11063
11077
11110
11132
11153
11187
11188
11139
10990
10881
10849
10849
10837
10860
10881
10898
10923
11000
11025
11091
11161
11211
11257
11358
11409
11422
11400
11380
11329
11246
11187
11109
11056
10988
10684
10557
10479
10433
10399
10513
10690
10887
11021
11103
11157
11134
11120
11133
11147
11139
11014
10948
10962
10978
10961
10857
10853
10869
10902
10958
10995
10942
10925
10944
10932
10930
11002
11055
11122
11168
11205
11190
11097
11060
11031
11011
11008
10993
10980
10992
10989
11028
11096
11089
11065
11018
10995
10966
10962
10922
10908
10941
11002
10988
10949
10866
10793
10788
10808
10875
10926
10959
10972
10981
11063
11094
11133
11178
11215
11337
11406
11461
11474
11424
11403
11421
11404
11408
11328
11169
10812
10721
10696
10659
10617
10632
10697
10726
10748
10771
10801
10871
10901
10928
10959
11012
11066
11074
11043
10954
10874
10837
10883
10923
10967
10941
10928
11077
11124
11154
11154
11122
11090
11071
11056
11056
11088
11108
11116
11081
11014
10941
10877
10836
10822
10842
10851
10913
10990
11055
11109
11161
11208
11241
11336
11294
11165
11024
10951
10944
10922
10856
10766
10676
10607
10747
10837
10911
11003
11141
11305
11405
11313
11206
11162
11138
11169
11172
11184
11189
11186
11093
11052
11089
11107
11107
11074
10928
10848
10832
10786
10695
10604
10634
10701
10800
10892
10932
11007
11038
11107
11178
11193
11172
11118
11066
11053
11061
11059
10999
10981
10953
10953
10954
10967
10957
10949
10964
10990
11073
11114
11174
11240
11259
11206
11027
10963
10953
11018
11084
11117
11096
11085
11079
11081
11096
11172
11183
11180
11193
11198
11117
11101
11096
11070
11022
10924
10860
10818
10789
10769
10762
10768
10822
10833
10816
10786
10813
10877
10983
11098
11185
11241
11151
11072
11002
10974
10958
10913
10935
11017
11078
11119
11148
11153
11194
11209
11175
11088
10967
10940
10889
10879
10906
10944
10934
10990
11083
11109
11056
10948
10908
10884
10901
10930
11027
11084
11098
11076
11014
10923
10773
10746
10746
10750
10745
10785
10834
10924
11070
11229
11468
11615
11671
11654
11657
11672
11678
11589
11386
11162
11019
10853
10800
10782
10752
10748
10748
10758
10726
10669
10618
10622
10731
10757
10821
10921
11025
11084
11145
11195
11185
11188
11211
11291
11282
11276
11208
11121
10988
10933
10910
10872
10801
10750
10736
10709
10733
10781
10798
10833
10903
10982
10977
10948
10992
11268
11368
11432
11464
11424
11277
11226
11184
11138
11092
10995
10991
11049
11077
11070
11043
11016
11008
11005
11033
11076
11173
11186
11175
11137
11125
11149
11169
11151
11090
10999
10892
10695
10665
10691
10727
10719
10702
10699
10739
10790
10832
10896
11002
10984
11028
11114
11246
11419
11417
11440
11463
11460
11430
11359
11340
11322
11252
11159
10974
10827
10672
10528
10413
10308
10309
10380
10486
10615
10793
10889
10916
11025
11159
11229
11213
11211
11228
11255
11296
11352
11520
11561
11561
11540
11477
11288
11197
11080
10928
10794
10670
10662
10721
10816
10899
10928
10755
10699
10673
10676
10718
10775
10815
10882
11001
11121
11200
11229
11228
11231
11234
11272
11419
11471
11491
11457
11399
11337
11176
11093
11004
10906
10872
10806
10786
10790
10834
10897
10973
10979
11013
11078
11107
11081
10807
10747
10721
10706
10743
11059
11182
11281
11376
11474
11523
11449
11406
11376
11384
11376
11350
11292
11203
11078
10979
10867
10607
10547
10501
10447
10383
10374
10379
10395
10400
10435
10715
10916
11091
11184
11180
11140
11067
11096
11113
11114
11148
11363
11465
11510
11513
11469
11427
11352
11263
11176
11111
11090
11105
11109
11135
11163
11168
11173
11101
11079
11109
11159
11180
11043
10938
10861
10838
10805
10703
10611
10549
10533
10573
10633
10890
10995
11096
11131
11147
11219
11302
11364
11371
11350
11335
11331
11329
11300
11257
11233
11185
11160
11098
11038
10989
10982
10994
10976
10849
10682
10556
10564
10640
10701
10779
10854
11025
11066
11128
11208
11269
11289
11243
11186
11086
10973
10886
10751
10669
10678
10729
10780
10719
10683
10719
10827
10943
11054
11094
11066
11046
11052
11108
11213
11234
11230
11210
11154
11126
11115
11106
11116
11184
11296
11431
11491
11527
11532
11487
11452
11352
11284
11209
11161
11176
11294
11344
11396
11429
11388
11204
11141
11066
11031
10991
10890
10552
10322
10089
9859
9708
9689
9742
9871
10025
10153
10458
10627
10837
11072
11329
11748
11947
12090
12147
12134
12141
12116
11981
11786
11525
11243
10632
10437
10355
10302
10280
10301
10318
10327
10376
10484
10649
11192
11373
11434
11372
11312
11474
11570
11597
11611
11601
11612
11402
11201
11019
10893
10781
10652
10684
10746
10777
10806
10752
10673
10579
10540
10577
10694
10921
11030
11159
11263
11305
11301
11388
11439
11455
11443
11425
11270
11131
11031
10959
10959
10982
10965
10942
10930
10885
10818
10806
10890
10975
11042
11102
11206
11222
11260
11303
11284
11151
11082
10971
10757
10545
10414
10262
10253
10358
10510
10620
10673
10710
10832
11026
11231
11379
11443
11486
11541
11613
11705
11844
11905
11904
11839
11743
11537
11399
11265
11123
10968
10822
10563
10508
10469
10418
10352
10360
10521
10759
11024
11222
11393
11590
11660
11734
11822
11868
11765
11620
11456
11294
11101
10710
10560
10459
10382
10273
10164
10156
10303
10492
10603
10552
10496
10693
10926
11170
11366
11481
11346
11141
10921
10779
10731
10861
10954
10967
10887
10837
10880
11110
11235
11364
11496
11659
11929
11990
12028
12080
12093
12012
11919
11751
11573
11372
11106
10319
10014
9785
9727
9809
9940
10080
10181
10274
10551
10630
10673
10680
10657
10680
10654
10656
10711
10712
10684
10843
11001
11116
11173
11191
11380
11538
11687
11852
12022
12275
12827
12937
12983
12935
12837
12400
12056
11660
11273
10853
9729
9164
8757
8516
8430
8489
8613
8900
9312
9723
10047
10412
10889
11302
11575
12286
12436
12425
12279
12105
11838
11668
11472
11251
11027
10845
10947
11093
11222
11235
11177
11284
11416
11412
11303
11155
11004
10765
10621
10437
10163
9852
9629
9646
9918
10250
10762
10923
11112
11375
11517
11434
11322
11202
11073
10977
10958
11301
11702
12141
12478
12640
12755
12744
12673
12466
12142
11295
10797
10276
9862
9508
9269
9307
9491
9685
9825
9952
10173
10419
10677
10747
10782
10769
10722
10426
10347
10448
10679
10827
10878
11348
11722
11993
12041
12008
12095
12241
12439
12513
12393
12158
11580
11075
10581
10334
10347
10571
10572
10535
10456
10426
10386
10575
10730
10812
10793
10686
10749
11005
11251
11339
11325
10984
10729
10549
10698
11060
11428
11766
11848
11906
11882
12076
13177
13497
13400
12944
12242
11410
9821
9247
8751
8480
8315
8099
7903
7885
8104
8582
9406
10274
11019
11661
12201
12917
12996
12862
12596
12278
11904
11335
11111
10960
10827
10664
10373
10587
10944
11496
12022
13074
13487
13651
13524
13137
12574
11525
11450
11612
11592
11186
9725
9168
8930
8765
8497
8366
8405
8559
8796
8956
9050
9229
9651
9981
10160
10488
11119
11774
12212
11974
11577
11254
11071
10977
10648
10416
10379
10483
10658
11020
11359
11982
13092
14236
15506
17189
17129
16514
15442
14074
11326
10159
8999
7648
6102
4812
4336
4442
5256
6592
8025
9310
10469
11380
11889
11616
11319
11263
11492
11679
11650
11845
12197
12277
12064
12020
12190
12142
11839
11333
10759
10274
10044
9625
9532
9751
10152
10770
11533
13184
13692
13882
13762
13450
12517
11955
11490
11118
11013
11043
10453
10572
10774
10670
10416
9696
9435
9319
9214
8835
8410
8258
8426
9023
9898
10789
11479
11959
12336
12681
12876
12518
12184
12058
12025
11769
11652
11554
11497
11381
11066
10405
10503
10573
10701
11209
11721
11535
11358
11263
11269
11199
11097
10982
10693
10425
10213
9765
10047
10816
12269
13615
14089
13368
12410
11501
10932
10613
10432
9866
9487
8874
8324
8092
8317
8904
9830
10914
11869
12415
12754
12417
12317
11941
11271
10894
11029
11336
11535
11917
12024
12105
11625
10678
9360
8208
7878
8419
9236
10113
10899
11827
13506
13520
13432
13099
12625
12358
12234
11887
11020
9938
9027
8504
8276
8148
8403
8869
9102
9302
9874
10534
10728
10704
11118
11553
11753
11836
11380
10317
9169
8450
8338
8688
9478
10671
12539
15189
17977
17997
17360
16367
15116
11868
9800
7415
4866
2697
1760
2641
4505
6450
8414
10475
12459
13895
14590
14319
13662
12755
12152
12241
13461
13537
13430
13418
13477
13647
13405
12592
11343
9399
6966
5044
4033
3894
4493
5264
6120
7208
8599
10185
13333
14437
15281
16205
17256
17667
17114
16585
15851
15079
14238
12560
10913
9472
8144
6916
5974
5712
6035
6594
7200
7672
7891
8059
8702
9439
9885
10079
10693
12506
13128
13340
13217
12920
12480
11324
10786
10882
11963
13379
14378
14148
14011
14018
13844
12448
11052
9047
6909
5546
5025
4849
5500
7184
9465
11780
13679
15307
16548
16018
15228
14255
12936
11357
7893
6904
6310
6539
7279
8099
8696
9177
9837
10540
11019
11153
10915
9578
8832
9025
10076
11457
12638
13743
14967
16630
16617
16251
16060
15680
14815
11520
9515
7447
6368
7045
8596
10054
10702
10393
9765
9139
8559
8461
8751
8950
8706
8386
8037
7810
8234
9203
11866
11866
13069
13687
13657
12996
12866
12898
13239
13789
13763
12072
10972
9788
8871
8747
9359
10168
10919
11737
12854
12767
12469
12155
11884
11535
11785
12182
12568
12669
12546
13465
13892
13510
12602
11446
8058
6530
5497
4957
5411
7217
9002
10085
10656
11242
11926
12357
12327
12617
12805
12647
11779
8838
7962
8324
9581
10728
11716
12418
12494
11745
9874
9482
9187
9249
10166
12211
14430
15905
16883
17283
16679
15620
13889
11565
8930
6427
4468
3328
5793
8581
11103
12711
13449
13553
13123
12522
10429
8743
6605
4447
3268
4097
6505
9564
12342
15017
17552
19069
18589
17620
17020
16403
15140
12853
11439
9904
8343
6775
5337
4150
3165
2421
2141
2052
2231
3599
5675
7564
9528
11732
13260
14501
15135
16119
17145
17579
17396
16156
15325
14320
13279
12504
11169
10711
10455
10599
11704
14005
14770
15312
15295
14994
14207
12148
11316
10321
8810
6827
4818
3794
3820
4413
5348
5998
6329
7016
8581
10500
13162
14197
14606
14320
13937
13566
12422
11427
10080
8278
6522
5329
5044
6038
8071
10137
11679
13250
13707
13983
14063
14064
13881
14069
14549
14663
14550
14585
15055
15319
15107
14281
12638
8083
6657
6321
6535
6670
6484
6156
6180
6391
6758
7500
8662
9895
10673
10944
11157
11443
11319
11096
10865
10904
11553
12475
13175
13288
13350
13254
13000
12400
12141
11948
12051
12571
13036
13105
13218
13237
12999
12642
11695
10966
10023
8751
7600
6984
7024
7386
7955
8714
9569
10183
10583
10958
11244
11565
11796
11934
11738
11748
12361
13494
14569
15209
14992
14632
14122
13606
12888
10183
8460
6720
5101
3924
3872
5048
6510
7652
8660
9670
10473
11043
11415
12060
12676
13235
13434
13360
13066
11722
11378
11433
11548
11471
10758
10605
10779
11169
11288
11082
10930
11077
11305
11502
11650
11695
11713
11682
11608
11574
11599
11667
11679
11752
11896
11892
11210
11329
12187
12945
13393
13544
12922
12046
10977
9737
8366
7157
6294
5616
5361
5869
6863
8081
9416
10759
12757
13179
13212
13013
12782
12421
12127
11686
11166
10656
10143
9831
10452
11380
12091
12416
12534
12514
12403
12121
11555
10850
10251
10196
10740
11182
11277
11102
10503
10339
10305
10274
10058
10202
10591
11024
11389
11737
12064
11888
11719
11536
11266
11118
10990
10781
10498
10333
10365
10592
10999
11156
11300
11440
11612
11824
12013
12129
12013
11823
11463
11365
11164
10864
10597
10464
10411
10534
10764
11233
11700
12006
11738
11362
10878
10280
9746
9597
10381
10795
11030
11323
11639
11912
12649
12506
12145
11601
11045
10397
10155
9890
9631
9185
8499
7911
7787
8207
8974
9855
10694
11336
11710
11926
11961
11981
11929
11878
11875
11914
11991
12007
11959
11867
11627
11551
11487
11411
11330
11221
11147
11089
11064
11106
11251
11376
11357
11374
11422
11469
11378
11279
11170
11088
10985
10833
10834
10871
10857
10788
10749
10630
10622
10610
10571
10570
10620
10702
10781
10803
10796
10852
11150
11263
11300
11230
11103
11009
11111
11199
11219
11183
11123
11042
11034
11056
11084
11100
11116
11118
11126
11163
11201
11226
11251
11417
11706
11969
12230
12712
12726
12552
12244
11870
11076
10651
10144
9678
9288
8955
8834
8949
9288
9690
10012
10167
10615
10866
11002
10955
10832
10609
10526
10455
10522
10776
11188
12174
12535
12648
12522
12303
11915
11717
11458
11181
10825
10408
9922
9815
9894
10206
10511
10726
10884
11058
11448
11553
11577
11549
11499
11458
11446
11428
11449
11379
11253
11094
11094
11193
11295
11356
11411
11502
11556
11492
11344
11146
11184
11160
11061
10960
10856
10735
10696
10649
10610
10581
10718
10848
10940
11002
10997
10969
10878
10823
10786
10830
10944
11063
11081
11076
11086
11112
11144
11149
11123
11109
11100
11129
11147
11137
11128
11130
11131
11241
11314
11381
11430
11478
11500
11557
11599
11607
11533
11438
11225
11057
10802
10500
10229
10052
10069
10243
10442
10539
10580
10661
10702
10769
10847
11062
11862
12106
12171
12151
12117
12092
11892
11630
11323
10977
10641
9969
9737
9577
9635
9844
10098
10332
10542
10741
10992
11489
11501
11435
11446
11504
11512
11537
11630
11715
11706
11583
11340
11225
11075
10851
10680
10402
10202
10033
9956
10029
10214
10433
10978
11232
11413
11515
11577
11689
11720
11719
11698
11672
11624
11490
11468
11512
11491
11411
11197
11010
10846
10687
10536
10545
10614
10662
10679
10701
10723
10817
10956
11111
11203
11234
11276
11318
11372
11397
11374
11348
11311
11312
11279
11237
11178
11002
10885
10776
10707
10670
10662
10685
10726
10819
10921
11032
11077
11011
10947
10985
11053
11085
11149
11203
11237
11301
11356
11328
11216
11071
10931
10843
10714
10683
10685
10725
10756
10774
10901
10974
11026
11041
11042
11055
11117
11213
11326
11386
11525
11597
11744
11945
12120
12187
11982
11778
11529
11284
11035
10609
10385
10152
9907
9629
9364
9222
9249
9390
9636
9909
10140
10334
10754
10959
11176
11386
11551
11745
11802
11840
11875
11899
11852
11725
11626
11499
11352
11264
11268
11350
11390
11365
11299
11247
11204
11178
11130
11091
11065
10990
10984
10985
11002
11038
11073
11091
11077
11067
11067
11068
11070
11033
10965
10919
10940
11051
11080
11083
11096
11094
11029
10807
10726
10671
10607
10575
10664
10766
10897
11026
11152
11252
11421
11447
11432
11423
11439
11450
11480
11487
11448
11417
11371
11311
11216
11130
11033
10951
10959
11031
11182
11292
11308
11073
10948
10868
10837
10754
10618
10355
10213
10102
10015
9962
9977
10000
10046
10100
10171
10347
10654
11195
11371
11465
11505
11587
11696
11794
11770
11786
11779
11760
11688
11623
11564
11507
11449
11362
11159
11051
10984
10945
10922
10873
10849
10817
10792
10762
10718
10725
10746
10800
10876
10945
11026
11077
11127
11180
11234
11279
11286
11282
11245
11226
11229
11262
11267
11242
11196
11132
11086
11087
11105
11122
11126
11076
11015
10957
10890
10808
10746
10755
10798
10828
10845
10885
11019
11111
11174
11232
11310
11403
11637
11759
11835
11883
11886
11844
11787
11757
11674
11511
11288
10621
10262
10032
9956
10032
10157
10398
10353
10182
10022
9896
9869
9958
10103
10527
10699
10804
10833
10841
11141
11341
11524
11632
11683
11686
11708
11739
11732
11699
11657
11559
11459
11373
11321
11298
11282
11248
11253
11232
11215
11218
11139
10983
10792
10645
10583
10557
10555
10591
10669
10740
10817
10995
11112
11194
11255
11282
11324
11313
11280
11233
11134
11011
10877
10880
10910
10986
11081
11156
11159
11180
11211
11231
11239
11176
11113
11063
11034
11024
11023
11049
11090
11117
11147
11173
11174
11120
11033
10924
10837
10847
10866
10858
10895
10979
11178
11258
11330
11379
11456
11534
11544
11454
11363
11268
11133
10883
10852
10827
10806
10811
10812
10760
10711
10692
10681
10671
10699
10739
10764
10764
10781
11075
11241
11375
11399
11340
11277
11028
10965
10972
11006
11044
11129
11140
11172
11185
11159
11126
11199
11165
11075
10978
10928
10802
10692
10631
10629
10669
10890
11015
11104
11153
11158
11129
11119
11175
11252
11322
11348
11332
11284
11238
11188
11151
11149
11164
11163
11163
11163
11161
11154
11150
11156
11151
11148
11115
11097
11063
11045
11027
11000
10931
10880
10847
10884
10950
11019
11020
11028
11066
11099
11158
11227
11253
11236
11168
11102
11059
11036
11006
11022
11091
11204
11248
11270
11303
11291
11207
10880
10688
10523
10480
10556
10814
10887
10883
10847
10832
10884
11014
11105
11191
11282
11344
11234
11129
11054
10987
10933
10956
11058
11067
11057
11039
11021
10949
10938
10990
11075
11145
11251
11279
11295
11253
11187
11126
11026
11031
11065
11114
11171
11183
11113
11014
10913
10798
10726
10805
10876
10954
11027
11089
11166
11182
11171
11162
11161
11129
11112
11165
11259
11330
11375
11310
11189
11025
10867
10776
10783
10810
10843
10920
11026
11114
11249
11273
11267
11237
11215
11141
11109
11157
11202
11196
11175
11067
11029
11063
11114
11081
10919
10790
10655
10559
10501
10510
10555
10677
10860
11097
11352
11752
11866
11953
11993
11945
11551
11238
10948
10693
10477
10307
10184
10206
10265
10336
10448
10618
10699
10770
10827
10909
11178
11310
11435
11524
11581
11618
11571
11489
11386
11334
11321
11212
11121
11079
11128
11200
11199
11018
10973
10935
10855
10782
10825
10813
10812
10764
10706
10713
10824
10925
11022
11110
11190
11260
11301
11334
11371
11383
11413
11387
11333
11266
11194
11140
11109
11105
11090
11073
11068
11063
11075
11087
11106
11113
11086
10917
10863
10863
10903
10951
10948
10969
10969
10952
10915
10856
10849
10892
10952
11012
11096
11214
11242
11252
11210
11115
11086
11106
11106
11057
11001
10947
10852
10806
10799
10859
10915
11111
11221
11291
11276
11223
11124
11119
11128
11189
11252
11269
11246
11223
11238
11275
11300
11208
11142
11066
10971
10860
10701
10538
10566
10578
10605
10660
10736
10768
10810
10813
10777
10763
11050
11239
11411
11494
11566
11718
11741
11769
11756
11697
11509
11365
11212
11097
11007
10925
10765
10680
10659
10663
10692
10809
10823
10806
10770
10684
10672
10896
11011
11092
11119
11133
11115
11111
11151
11185
11170
11103
11108
11130
11124
11118
11131
11183
11215
11220
11198
11160
11091
11067
11047
11030
10955
10856
10749
10756
10829
10925
10992
11051
11049
11034
11048
11109
11183
11360
11393
11394
11359
11313
11197
11136
11143
11182
11158
10922
10864
10852
10856
10878
10925
10935
10952
10986
11022
11020
10919
10910
10935
10922
10883
10885
10891
10869
10794
10734
10751
10919
10988
11031
11100
11177
11264
11272
11278
11321
11382
11419
11387
11364
11340
11284
11259
11244
11197
11136
11043
10932
10853
10752
10710
10674
10662
10661
10767
10790
10800
10843
10910
11038
11097
11145
11177
11196
11230
11357
11470
11596
11714
11798
11699
11561
11420
11305
11204
11105
10940
10913
10846
10693
10525
10542
10618
10652
10671
10711
10779
10789
10738
10682
10657
10598
10421
10427
10547
10731
10910
11181
11356
11494
11572
11642
11744
11898
11849
11788
11718
11686
11674
11625
11498
11369
11244
11134
10882
10711
10610
10546
10548
10672
10729
10753
10768
10747
10593
10566
10556
10524
10428
10337
10176
10226
10299
10439
10642
10892
10914
11066
11336
11576
11796
12097
12130
12120
12106
12047
11865
11717
11613
11510
11393
11256
10963
10797
10661
10601
10588
10694
10786
10871
10902
10922
10969
11008
11008
10952
10866
10762
10646
10641
10693
10837
11017
11088
10978
10897
10804
10697
10643
10615
10663
10717
10796
10874
10923
10960
11111
11284
11420
11529
11576
11601
11624
11610
11525
11309
11253
11201
11134
11050
10888
10829
10775
10728
10735
10794
10968
11045
11082
11069
11028
10912
10864
10832
10787
10714
10653
10642
10665
10705
10776
10851
10983
11024
11092
11183
11236
11418
11499
11513
11477
11378
11266
11080
10928
10880
10984
11099
11178
11167
11159
11155
11131
11062
10920
10927
10930
10883
10813
10799
10862
10915
10947
10984
11032
11029
10990
10972
10968
10952
10951
11009
11053
11113
11164
11264
11314
11313
11312
11290
11242
11093
11024
10914
10744
10606
10465
10501
10602
10719
10832
10895
10908
10944
10965
11000
11080
11125
11127
11144
11137
11137
11160
11220
11270
11272
11199
11116
11052
11048
11037
11069
11099
11146
11197
11263
11295
11262
11184
11033
10942
10862
10846
10912
11055
11114
11142
11149
11151
11025
10953
10879
10844
10813
10775
10755
10803
10878
10930
10947
10965
10974
10976
10962
10965
10985
11108
11205
11307
11415
11560
11694
11674
11656
11649
11573
11231
11064
10955
10842
10696
10555
10381
10410
10493
10532
10556
10558
10559
10618
10660
10744
10897
11207
11281
11344
11408
11477
11543
11487
11429
11404
11424
11336
11228
11091
10960
10852
10752
10654
10675
10678
10622
10576
10647
10657
10672
10689
10738
10877
11120
11153
11237
11312
11272
11124
11159
11216
11286
11356
11386
11294
11254
11205
11134
11088
11030
10972
10867
10772
10706
10663
10702
10747
10785
10814
10883
11150
11267
11373
11432
11436
11332
11282
11291
11316
11323
11336
11367
11333
11250
11132
11022
10770
10618
10565
10515
10422
10377
10462
10545
10591
10622
10649
10900
11041
11148
11284
11445
11763
11812
11802
11729
11627
11489
11091
10963
10861
10780
10704
10677
10693
10741
10834
10952
11091
11441
11546
11561
11531
11480
11237
11088
10981
10900
10841
10734
10580
10460
10418
10473
10583
10805
10910
10993
11022
11005
11043
11120
11181
11240
11282
11244
10892
10743
10694
10719
10768
10779
10728
10723
10805
10893
11000
11075
11145
11160
11134
11128
11157
11244
11348
11406
11416
11397
11340
11268
11191
11133
11082
10958
10944
10982
11050
11105
11299
11426
11558
11665
11744
11743
11588
11450
11365
11325
11256
11088
11065
11058
11008
10918
10748
10605
10493
10415
10393
10490
10806
10925
11055
11194
11311
11409
11414
11386
11342
11281
11221
11156
11062
10898
10719
10626
10494
10386
10354
10458
10639
11017
11141
11248
11363
11489
11598
11736
11770
11757
11734
11687
11475
11379
11290
11191
11088
11003
10927
10936
11006
11114
11196
11319
11395
11517
11606
11579
11436
11460
11486
11516
11490
11418
11330
11278
11197
11165
11192
11243
11268
11268
11242
11174
11113
11038
11032
11019
10988
10929
10856
10870
10939
11013
11056
11085
11202
11272
11354
11435
11498
11594
11586
11549
11470
11340
10990
10857
10844
10856
10822
10772
10695
10711
10746
10778
10830
10886
10914
10964
10981
10993
11035
11298
11397
11385
11271
11145
11031
11028
11047
11109
11225
11385
11473
11647
11818
11913
11913
11790
11696
11598
11435
11208
10886
10866
10918
10986
11030
11032
11094
11156
11228
11271
11336
11552
11642
11641
11582
11455
11302
11239
11108
10960
10823
10686
10430
10475
10648
10884
11104
11429
11531
11627
11753
11821
11767
11381
11137
10910
10713
10553
10476
10515
10529
10525
10566
10724
11107
11247
11365
11431
11373
11161
11106
11131
11237
11393
11597
11648
11742
11848
11917
11901
11625
11501
11384
11308
11294
11430
11507
11631
11773
11886
11940
11765
11659
11503
11302
11138
10924
10856
10823
10818
10855
10776
10730
10681
10591
10495
10472
10700
10857
11012
11170
11307
11253
11121
10982
10780
10551
10418
10379
10401
10396
10472
10653
11155
11362
11541
11753
11907
12012
12217
12179
12046
11898
11698
11278
11099
10972
10893
10838
10818
10789
10776
10789
10794
10778
10809
10949
11172
11379
11506
11692
11747
11790
11805
11762
11620
11158
10990
10945
11015
11162
11377
11525
11678
11748
11681
11297
11066
10815
10661
10590
10557
10715
10912
11099
11214
11277
11262
11256
11307
11320
11336
11431
11696
11828
11922
11984
12010
11810
11532
11234
11004
10897
10962
11042
11108
11139
11117
11008
10693
10603
10543
10526
10526
10606
10696
10797
10934
11137
11313
11446
11490
11548
11567
11559
11477
11414
11405
11446
11504
11582
11580
11460
11268
11046
10830
10476
10379
10317
10284
10296
10603
10838
11083
11300
11433
11557
11717
11748
11783
11810
11803
11573
11482
11395
11352
11353
11323
11147
11065
11047
11060
11116
11337
11449
11604
11782
11937
11916
11854
11766
11655
11539
11364
11010
10934
10874
10790
10725
10531
10614
10790
10928
11002
11047
10980
10807
10691
10638
10639
10678
10651
10549
10400
10309
10305
10618
10908
11163
11344
11481
11767
11926
12033
12082
12102
12075
12066
12014
11903
11755
11641
11515
11361
11212
11117
11094
11108
11118
11103
11067
11013
10966
11079
11161
11182
11132
11080
11037
10986
10917
10892
10968
11344
11446
11463
11396
11250
11063
10845
10797
10766
10756
10728
10720
10817
10967
11128
11258
11371
11540
11575
11580
11564
11515
11296
11263
11252
11246
11210
11016
10944
10937
11003
11101
11196
11309
11409
11516
11610
11696
11746
11740
11699
11624
11494
11280
10919
10718
10505
10317
10233
10313
10572
10919
11239
11507
11735
12021
12068
12093
12128
12138
12000
11824
11625
11422
11229
10832
10711
10655
10615
10581
10620
10844
10989
11168
11317
11389
11377
11320
11208
11049
10896
10744
10559
10559
10669
10797
10864
10962
11019
11050
11045
11051
11139
11258
11393
11538
11656
11723
11782
11806
11793
11751
11693
11630
11634
11612
11579
11548
11510
11191
10949
10688
10478
10393
10300
10325
10399
10543
10723
10893
11234
11414
11553
11684
11755
11794
11808
11809
11749
11650
11440
11348
11203
10994
10742
10438
10150
10277
10497
10680
10862
11306
11589
11849
12029
12163
12217
12147
12021
11860
11687
11516
11141
10917
10701
10543
10421
10293
10354
10508
10680
10821
10988
11461
11615
11699
11745
11779
11776
11753
11679
11518
11347
11196
10877
10795
10837
10908
10972
11073
11147
11201
11234
11243
11222
11070
10943
10876
10882
10855
10786
10855
11016
11170
11269
11286
11258
11249
11277
11342
11404
11624
11732
11825
11861
11822
11484
11262
11025
10839
10723
10637
10632
10723
10910
11087
11209
11324
11390
11460
11547
11602
11601
11578
11547
11421
11206
11029
10811
10760
10686
10667
10699
10949
11078
11185
11240
11238
11203
11291
11376
11445
11479
11446
11297
11281
11286
11337
11374
11397
11378
11364
11381
11360
11343
11357
11316
11243
11200
11183
11153
11086
11019
11000
11054
11166
11322
11313
11197
11024
10772
10567
10687
10899
11138
11374
11562
11803
11904
11895
11808
11668
11334
11140
11004
10898
10820
10545
10558
10654
10803
11003
11232
11527
11578
11600
11566
11513
11443
11453
11373
11232
11080
10954
10761
10783
10897
11020
11078
11075
11091
11180
11270
11356
11424
11373
11318
11274
11215
11166
11064
11101
11148
11169
11186
11135
11092
11045
11001
10998
11067
11127
11125
11127
11165
11237
11231
11173
11156
11191
11230
11273
11284
11290
11342
11400
11422
11534
11580
11657
11762
11862
11782
11690
11567
11431
11297
11182
10936
10911
10990
11076
11095
11176
11248
11225
11183
11140
11052
10828
10761
10768
10835
10924
11055
11112
11194
11299
11363
11290
11234
11188
11122
11019
10921
10859
10857
10906
10978
11060
11299
11391
11507
11625
11724
11768
11800
11789
11716
11546
11409
11265
11222
11170
11021
10828
10621
10642
10723
10821
10909
11011
11205
11198
11153
11059
10947
10910
10904
10936
10970
11006
11092
11270
11277
11273
11320
11391
11560
11559
11552
11526
11492
11451
11365
11346
11323
11273
11207
11041
11027
11048
11074
11113
11230
11377
11535
11707
11808
11839
11626
11489
11351
11240
11142
10976
10936
10950
10980
10999
11048
11121
11098
11054
11035
11052
11081
11112
11158
11198
11207
11144
11138
11173
11194
11189
11172
11139
11112
11116
11117
11114
11155
11216
11274
11289
11272
11232
11244
11316
11379
11351
11287
11248
11314
11402
11418
11409
11419
11375
11278
11188
11081
10992
10849
10806
10769
10814
10884
11108
11209
11200
11140
11069
11019
10963
10982
11028
11117
11124
10985
11031
11145
11294
11431
11530
11607
11609
11596
11573
11539
11482
11437
11437
11413
11332
11164
11094
11068
11087
11161
11254
11508
11534
11480
11384
11306
11185
11145
11122
11081
11035
11011
11037
11080
11121
11157
11196
11263
11324
11295
11231
11198
11227
11194
11155
11143
11185
11222
11214
11195
11186
11208
11226
11177
11101
10996
10905
10882
10937
11202
11296
11327
11297
11222
11130
11140
11162
11181
11235
11366
11537
11571
11591
11574
11457
11291
11286
11306
11288
11265
11123
11092
11050
11017
10982
10894
10754
10648
10471
10311
10331
10703
10825
10876
10894
10955
11082
11429
11535
11608
11637
11638
11601
11584
11548
11509
11468
11421
11423
11462
11507
11535
11529
11531
11557
11605
11630
11599
11434
11325
11195
11057
10920
10843
10976
11084
11206
11295
11305
11172
11102
11086
11073
11041
10970
10924
10947
11100
11336
11532
11601
11503
11411
11324
11297
11263
11142
10951
10752
10556
10408
10308
10410
10565
10686
10803
11086
11199
11267
11328
11410
11496
11611
11654
11694
11698
11686
11579
11539
11493
11431
11356
11298
11273
11227
11195
11167
11127
11000
10972
10993
11042
11088
11177
11230
11262
11271
11213
11171
11241
11314
11419
11517
11564
11550
11536
11489
11435
11392
11358
11337
11288
11214
11163
11123
10920
10844
10790
10740
10712
10727
10648
10587
10561
10616
10738
11097
11243
11334
11381
11389
11291
11163
11091
11105
11168
11200
11269
11322
11385
11441
11466
11615
11657
11698
11743
11816
12001
12083
12146
12199
12265
12311
12067
11774
11350
10831
10338
9655
9418
9268
9333
9567
9913
10258
10456
10589
10748
10950
11490
11790
11990
12055
12019
11904
11584
11393
11232
11107
11015
11026
11044
11073
11106
11163
11462
11660
11823
11924
11949
11890
11645
11480
11306
11173
11091
10911
10849
10854
10862
10818
10718
10563
10579
10598
10645
10720
10784
10825
10959
11135
11273
11462
11521
11536
11534
11561
11593
11690
11776
11889
11967
11990
11891
11798
11716
11606
11473
11334
11077
10906
10740
10594
10446
10366
10470
10568
10682
10854
11058
11036
11009
11064
11226
11422
11773
11931
12061
12113
12080
11863
11701
11544
11381
11226
11082
10772
10784
10851
10897
10945
11050
11026
11003
11025
11057
11084
10933
10766
10612
10514
10482
10431
10482
10653
10873
11044
11153
11238
11367
11465
11487
11497
11620
11678
11725
11722
11690
11710
11782
11850
11955
12138
12348
12628
12688
12657
12553
12378
11850
11482
11095
10743
10369
9541
9100
8675
8340
8184
8339
8763
9308
9843
10401
10949
11421
11775
12007
12122
12130
12106
12086
12069
12056
12009
12028
12118
12320
12597
13122
13354
13534
13689
13732
13362
12989
12427
11720
10870
9939
9012
8146
7478
6767
6784
7106
7619
8387
9244
10089
10916
11595
11999
12209
12259
12214
12175
12177
12185
12191
12126
12049
11972
11892
11779
11822
12076
12343
12539
12599
12514
12131
11878
11569
11279
11032
10598
10420
10235
9996
9690
9408
9374
9613
10007
10415
11072
11308
11493
11632
11739
11868
11844
11818
11818
11780
11682
11497
11471
11422
11300
11104
10832
10848
10950
11023
11068
11138
11355
11431
11508
11646
11875
12441
12690
12804
12740
12591
12121
11776
11436
11134
10842
10498
9666
9395
9284
9422
9856
10644
11389
11868
12171
12360
12349
12097
11804
11466
11025
9911
9341
8907
8511
8162
8014
8209
8763
9491
10153
10637
10997
11357
11689
12250
12412
12459
12503
12614
13054
13268
13433
13544
13599
13541
13056
12711
12402
12116
11817
10997
10493
10015
9607
9259
9121
9353
9757
10084
10347
10827
11048
11174
11311
11472
11654
11908
11843
11718
11551
11223
10643
10673
10800
10915
10960
10908
10947
11104
11331
11465
11543
12040
12102
11872
11495
11158
10759
10677
10609
10515
10478
10658
10899
11054
11320
11610
11874
12226
12305
12326
12324
12219
11631
11021
10498
10251
10383
10499
10270
10280
10449
10526
10427
10120
10083
10167
10386
10742
11260
12457
13085
13599
14091
14590
14930
15040
14873
14523
13886
13017
11121
10039
8789
7468
6345
5637
5308
5182
5438
6198
7198
8341
9337
10027
10646
12038
12575
12814
12938
12925
12086
11653
11474
11694
12048
12343
12696
12775
12749
12797
13332
14534
14450
14042
13511
13067
12786
12201
11637
10884
10059
9054
8064
7243
6940
7271
7941
8517
9062
10304
10800
10929
10772
10617
10779
11700
12098
12379
12559
12774
13468
13638
13588
13399
13184
12901
12633
12713
12707
12706
12519
11282
10902
10718
10617
10547
10523
9982
9764
9671
9665
9783
10108
10484
10738
10914
10898
10140
9683
9220
8818
8947
9625
10320
10966
11579
12094
12290
12345
12518
12637
12826
12265
11295
10205
9526
9470
9802
10350
10999
11959
12284
12519
12554
12377
12106
12019
12048
11841
11765
12195
13109
12910
12445
11749
11269
11095
11058
10895
10642
10341
9935
9371
8836
7795
7140
6972
7731
9355
10830
11874
12618
13059
13360
13552
13460
13247
13025
13015
13197
13090
12682
12551
12768
12969
12809
12286
11348
10170
9158
8634
8516
8820
9317
9823
10324
10900
10721
10620
11175
11757
11825
10684
9839
9275
8814
8587
8728
9144
9533
9780
9875
9881
10219
10948
11847
12869
12800
12650
12388
12069
11656
11406
11531
12326
13826
15771
17981
18392
18103
17325
16077
12608
10297
7439
4501
2354
935
90
90
9
877
877
3017
5854
8622
11231
14689
15695
16173
16205
16200
16414
16213
15349
13975
12282
10383
8219
8022
8427
9255
10098
10375
10034
9912
10790
12200
14108
14361
14079
13485
12674
10760
9520
8313
7484
7330
7636
8006
8592
9755
11393
13382
14684
15205
15737
15546
15167
14965
14810
14351
14865
15238
14755
13381
11802
9172
7291
5517
4577
4151
3858
3432
2889
2742
2901
4155
6665
9429
11774
13490
14631
15327
15942
16059
16038
15989
15738
15155
13384
12253
11326
10994
11015
11458
11744
12086
12411
12506
12155
12123
12703
13498
14157
14170
12622
11001
9588
8821
8296
7414
5988
4477
3513
3208
3046
3310
4661
7004
9389
11283
12717
14122
14232
14187
14135
14118
14165
14335
15224
16574
17350
17219
15672
15037
14312
13375
12325
11177
9044
7800
6652
5861
5778
6697
8033
9304
10350
11198
11784
11823
10919
10621
10381
10092
9943
10380
11221
12842
13317
13681
13965
13895
13779
13946
14180
14063
13526
12379
11710
11310
11356
11511
11111
9132
7508
6111
5527
5898
6743
7667
7929
7440
6746
6623
7138
8213
9612
10950
11960
12761
13554
15580
16008
15900
15458
14892
14288
13052
12501
11915
11342
10532
9170
9190
9553
10057
10620
11126
11592
11993
12482
12486
12558
12816
13007
13014
12722
12339
11966
11706
11421
9885
9359
9230
9521
10067
10567
10743
10485
10126
9983
10267
10703
11310
12049
12673
13412
13646
13570
13078
12340
11522
8993
7623
6638
6100
6270
7283
8648
9769
10516
11046
11521
11960
12486
12619
12653
12550
12358
12228
12085
12059
12059
12043
12036
11989
12045
12135
12539
12943
13029
12918
12960
12965
12913
12748
12212
11888
11556
11141
10599
9988
9209
9437
9325
9079
9207
9635
10319
10851
11207
11474
11571
11147
10612
9971
9480
9180
8970
8854
8928
9303
10038
10874
11536
12245
12425
12477
12389
12350
12435
12717
12877
12910
12762
12495
11607
11194
11010
11161
11422
11934
12134
12122
11766
11761
12287
12539
12162
11674
11199
10601
8742
8298
8548
9028
9428
9672
9892
10169
10517
10934
11325
11517
11373
11341
11288
11239
11231
11304
11496
11582
11667
11781
11928
12004
11970
11904
11893
12212
13195
13645
14059
14203
14018
13627
12710
12205
11567
10683
9672
8687
7782
7058
6750
7033
7741
8644
9555
10853
11292
11634
11881
12041
12124
12118
12083
12036
12034
12053
12118
12138
12114
12044
11967
11900
11769
11713
11684
11700
11738
11622
11547
11509
11563
11636
11681
11715
11716
11604
11442
11362
11206
11041
10938
10907
10939
10813
10657
10643
10690
10725
10683
10692
10831
10826
10721
10759
11455
11841
12309
12944
13609
13878
13127
12622
12148
11707
11329
10575
10131
9583
8999
8529
8205
8133
8446
9118
9864
10589
11389
12034
12381
12316
12256
12185
12046
11550
11295
11056
10789
10639
10688
11138
11388
11566
11676
11737
11826
11881
11936
11981
12046
12033
12042
12019
11950
11898
11855
11814
11698
11512
11384
11356
11440
11503
11536
11608
11729
11698
11456
11436
11402
11305
11181
10687
10585
10634
10591
10393
10376
10524
10681
10766
10831
10968
11350
11492
11569
11543
11424
11350
11457
11682
11982
12185
12299
12261
12148
12003
11874
11706
11213
10966
10819
10787
10828
10972
11500
11643
11623
11455
11220
10829
10773
10834
10974
11116
10888
10640
10490
10451
10549
10715
11181
11420
11525
11508
11554
11764
11754
11631
11497
11429
11389
11258
11197
11152
11168
11203
11249
11319
11441
11641
11887
12330
12469
12550
12446
12286
12158
11864
11680
11469
11234
10920
10297
10021
9787
9727
9837
10062
10314
10521
11107
11307
11386
11459
11561
11701
11888
12000
12167
12313
12372
12165
11989
11888
11844
11752
11510
10842
10576
10396
10364
10531
11025
11192
11241
11211
11250
11515
11631
11711
11728
11714
11645
11462
11385
11392
11436
11424
11203
11043
10869
10756
10700
10682
10659
10709
10824
11028
11277
11612
11788
11985
12254
12482
12578
12379
12267
12098
11833
11481
10821
10615
10510
10432
10317
10238
10355
10628
10869
11051
11221
11464
11572
11648
11682
11705
11679
11615
11576
11557
11562
11534
11414
11395
11410
11474
11504
11475
11499
11527
11540
11573
11633
11660
11687
11732
11811
11859
11808
11719
11566
11366
11158
10819
10638
10488
10391
10317
10340
10627
10808
10997
11191
11375
11521
11527
11540
11587
11599
11586
11506
11432
11350
11248
11162
11257
11443
11617
11735
11812
12197
12347
12405
12415
12370
12272
12141
12042
11879
11600
11245
10704
10520
10287
9968
9683
9652
9835
10053
10149
10253
10335
10381
10472
10674
10881
11270
11413
11564
11729
11848
11893
11936
11943
11911
11866
11800
11763
11719
11710
11722
11752
11739
11708
11665
11607
11535
11397
11384
11390
11418
11460
11483
11541
11581
11664
11703
11683
11491
11374
11277
11191
11156
11149
11083
11031
10987
10933
10865
10891
10976
11057
11082
11058
10964
10961
11000
11088
11195
11316
11447
11485
11505
11538
11593
11708
11718
11680
11639
11585
11517
11335
11273
11240
11209
11193
10992
10882
10854
10921
11019
11258
11343
11394
11450
11504
11540
11657
11745
11820
11872
11849
11671
11610
11517
11401
11263
11148
11067
11107
11102
11044
11038
11151
11234
11285
11318
11307
11320
11422
11430
11398
11320
11203
11071
11095
11122
11163
11220
11379
11465
11503
11489
11484
11520
11563
11586
11613
11624
11566
11335
11206
11124
11063
10995
10966
11032
11080
11166
11240
11288
11264
11265
11246
11198
11155
11089
11029
11049
11149
11270
11384
11603
11635
11658
11694
11714
11724
11736
11761
11767
11744
11691
11443
11376
11329
11324
11341
11408
11407
11374
11314
11253
11158
11196
11223
11243
11285
11366
11530
11549
11557
11530
11484
11373
11324
11270
11204
11171
11165
11245
11312
11337
11308
11267
11179
11132
11126
11171
11240
11286
11380
11430
11463
11459
11442
11410
11421
11407
11351
11313
11279
11248
11181
11115
11048
11009
11105
11321
11555
11721
11815
11953
11918
11853
11779
11681
11563
11243
11081
10886
10691
10551
10490
10575
10735
10916
11083
11294
11333
11408
11534
11679
11785
11813
11764
11717
11657
11600
11465
11380
11227
11026
10819
10592
10161
10039
10041
10176
10474
11113
11327
11466
11528
11558
11552
11492
11596
11762
11922
12029
12143
12127
12083
12010
11953
11837
11792
11753
11711
11675
11607
11528
11508
11519
11509
11477
11390
11332
11279
11231
11226
11249
11262
11300
11302
11260
11235
11195
11160
11136
11121
11141
11281
11298
11275
11270
11281
11287
11421
11512
11540
11486
11390
11185
11162
11187
11260
11366
11457
11699
11770
11806
11802
11799
11793
11757
11690
11583
11450
11177
11070
10971
10833
10650
10519
10328
10241
10189
10232
10394
10857
11047
11182
11274
11337
11373
11441
11498
11591
11665
11728
11783
11741
11688
11639
11550
11473
11429
11349
11256
11217
11250
11289
11330
11422
11524
11606
11707
11719
11700
11665
11580
11492
11357
11277
11250
11217
11213
11309
11361
11390
11396
11424
11429
11362
11299
11284
11288
11348
11409
11379
11372
11382
11394
11396
11412
11423
11430
11440
11439
11442
11420
11352
11302
11316
11258
11236
11228
11243
11279
11321
11360
11357
11378
11396
11421
11511
11531
11541
11554
11576
11545
11303
11175
11092
11080
11085
11072
11061
11061
11077
11160
11397
11503
11629
11746
11850
11890
11805
11686
11514
11304
11153
11116
11135
11116
11034
10931
10872
10855
10863
10946
11026
11072
11075
11101
11158
11196
11245
11289
11308
11347
11364
11343
11317
11366
11438
11478
11496
11495
11490
11535
11601
11660
11700
11728
11661
11623
11590
11563
11488
11251
11203
11201
11163
11176
11312
11321
11328
11333
11324
11348
11390
11397
11400
11432
11465
11531
11543
11545
11495
11405
11337
11288
11285
11242
11165
11085
11049
11102
11142
11141
11130
11178
11360
11461
11557
11680
11783
11868
11801
11685
11590
11547
11417
11246
11104
11057
11146
11272
11368
11371
11378
11388
11383
11190
11096
11076
11146
11270
11369
11505
11531
11524
11499
11449
11303
11232
11275
11347
11379
11447
11470
11480
11445
11299
11137
11011
10946
10936
10976
11083
11291
11324
11367
11441
11509
11490
11370
11311
11293
11349
11399
11333
11250
11154
11065
11020
11040
11181
11275
11288
11243
11176
11092
11043
11076
11226
11428
11635
11678
11738
11795
11797
11721
11591
11542
11466
11354
11281
11231
11145
11119
11132
11202
11321
11563
11639
11674
11666
11653
11615
11597
11589
11564
11525
11426
11367
11238
11035
10883
10834
10894
10926
10978
11069
11175
11384
11477
11564
11628
11701
11756
11811
11758
11663
11531
11392
11194
11134
11141
11162
11193
11340
11440
11515
11583
11646
11699
11760
11744
11708
11617
11476
11263
11229
11197
11228
11251
11209
11083
11055
11067
11090
11187
11252
11275
11359
11421
11395
11289
11030
10986
11000
10952
10883
10838
10924
11028
11135
11235
11487
11529
11554
11588
11614
11608
11517
11476
11446
11419
11398
11452
11454
11432
11397
11358
11361
11427
11459
11479
11471
11444
11463
11478
11403
11289
11188
10970
10866
10799
10795
10865
11013
11369
11530
11694
11843
11982
12152
12154
12119
12029
11947
11882
11700
11552
11411
11241
11033
10761
10713
10714
10780
10951
11164
11373
11316
11265
11253
11270
11291
11384
11455
11459
11412
11296
11301
11328
11368
11377
11352
11285
11257
11227
11168
11123
11195
11211
11204
11203
11233
11241
11256
11301
11359
11466
11552
11597
11569
11548
11552
11561
11542
11483
11430
11385
11353
11316
11286
11286
11252
11216
11197
11242
11289
11291
11268
11250
11278
11349
11375
11387
11416
11442
11366
11297
11229
11188
11209
11258
11322
11360
11409
11503
11608
11628
11586
11514
11460
11449
11350
11238
11159
11099
11058
11048
11116
11203
11281
11334
11400
11512
11621
11723
11739
11706
11699
11654
11613
11570
11511
11395
11101
11003
10969
10956
10930
11042
11103
11151
11195
11261
11328
11302
11270
11290
11340
11346
11335
11308
11269
11236
11247
11316
11446
11531
11631
11732
11805
11829
11816
11815
11742
11623
11396
11291
11169
11068
11011
10987
11274
11400
11463
11485
11475
11376
11301
11241
11224
11206
11196
11196
11171
11188
11201
11226
11243
11260
11271
11253
11211
11195
11226
11217
11221
11217
11217
11283
11360
11456
11555
11636
11701
11679
11627
11563
11495
11495
11535
11519
11464
11438
11411
11323
11348
11417
11447
11433
11373
11156
11104
11029
10895
10773
10788
10892
11036
11156
11214
11324
11458
11612
11747
11816
11862
11913
11899
11866
11799
11681
11468
11374
11340
11372
11319
11182
10921
10702
10467
10382
10477
10960
11229
11465
11624
11744
11839
11902
11903
11893
11819
11712
11552
11502
11494
11500
11492
11349
11308
11232
11180
11176
11253
11402
11436
11465
11561
11675
11701
11614
11516
11426
11329
11243
11026
10961
10943
10962
10982
10999
11009
11043
11079
11122
11211
11234
11240
11250
11269
11284
11330
11349
11367
11386
11421
11472
11488
11493
11509
11509
11513
11466
11424
11392
11373
11369
11365
11372
11402
11454
11535
11618
11577
11495
11407
11291
11144
10872
10828
10825
10846
10873
11036
11140
11230
11317
11364
11392
11451
11524
11652
11829
11936
11951
11911
11854
11817
11809
11810
11646
11459
11190
10906
10633
10340
10336
10415
10620
10893
11342
11495
11637
11788
11866
11875
11795
11765
11689
11563
11399
11156
11120
11166
11272
11339
11404
11565
11596
11666
11779
11880
11942
11884
11782
11665
11558
11413
11388
11389
11361
11288
11202
11117
11165
11212
11207
11177
11106
11079
11084
11086
11071
11041
11057
11079
11117
11154
11211
11322
11301
11226
11165
11131
11105
11055
11048
11090
11148
11210
11266
11278
11354
11532
11687
11914
12012
12051
12049
11977
11866
11607
11455
11323
11260
11239
11262
11247
11218
11177
11164
11188
11216
11177
11170
11170
11189
11258
11261
11227
11186
11141
11072
11127
11268
11390
11464
11500
11511
11480
11441
11357
11323
11457
11542
11562
11500
11383
11270
11216
11231
11242
11277
11337
11368
11349
11307
11249
11206
11229
11274
11330
11391
11465
11535
11472
11411
11466
11576
11632
11607
11562
11518
11472
11422
11386
11366
11401
11417
11350
11270
11270
11323
11313
11239
11198
11195
11210
11199
11139
11038
10942
10824
10885
11042
11232
11394
11709
11821
11946
12012
11997
11923
11772
11751
11739
11655
11499
11169
11034
10881
10777
10805
10916
11141
11220
11299
11387
11445
11433
11425
11440
11439
11417
11348
11264
11187
11165
11161
11172
11137
11216
11335
11445
11543
11753
11815
11842
11817
11759
11680
11572
11459
11358
11271
11127
10987
11042
11156
11257
11338
11401
11461
11468
11476
11416
11294
11083
10937
10782
10725
10797
11005
11075
11109
11170
11282
11425
11751
11853
11915
11940
11948
11823
11776
11728
11650
11545
11447
11284
11195
11077
11001
11028
11140
11179
11198
11213
11238
11267
11216
11106
10998
10925
10887
11056
11120
11143
11112
11054
10898
10915
11065
11317
11553
11721
12006
12081
12157
12206
12224
12202
12129
12005
11899
11838
11689
11564
11414
11261
11157
11152
11153
11148
11126
11108
11077
11081
11061
11021
10959
10851
10792
10900
10978
11015
11034
11032
11086
11135
11206
11288
11326
11347
11406
11483
11599
11753
11903
12035
11969
11850
11708
11585
11355
11321
11313
11318
11339
11339
11311
11279
11229
11216
11281
11319
11315
11345
11382
11412
11486
11581
11539
11440
11343
11277
11183
11163
11170
11224
11303
11382
11336
11279
11271
11306
11270
11006
10910
10869
10860
10875
10898
10949
10997
11077
11172
11270
11579
11755
11936
12134
12340
12603
12569
12496
12374
12125
11834
11485
11353
11215
11083
10971
10781
10758
10786
10819
10875
11055
11115
11182
11249
11256
11215
11183
11166
11057
10909
10799
10850
10925
11055
11210
11365
11503
11613
11626
11631
11667
11732
11823
11853
11864
11859
11808
11716
11717
11718
11666
11568
11411
11058
10860
10697
10708
10856
11219
11318
11371
11402
11426
11413
11313
11242
11150
11089
11077
11138
11210
11316
11419
11503
11550
11511
11466
11417
11384
11363
11512
11617
11742
11872
11986
12076
12045
11938
11766
11579
11387
11058
10956
10901
10866
10855
10916
10996
11096
11207
11302
11350
11313
11267
11235
11201
11138
10975
10948
10938
10925
10944
11146
11323
11552
11730
11847
11939
12099
12134
12139
12101
12014
11837
11667
11449
11241
11115
11036
10910
10825
10765
10717
10710
10805
10813
10783
10759
10782
10938
11064
11187
11294
11414
11555
11767
11805
11840
11905
11943
11912
11898
11894
11890
11859
11756
11454
11301
11140
11037
10989
10940
10909
10958
11102
11335
11570
11944
12092
12221
12263
12196
11925
11742
11589
11469
11367
11113
11074
11082
11095
11090
11073
10988
10883
10822
10849
10967
11300
11256
11144
11079
11069
11071
11101
11074
11071
11105
11148
11232
11198
11141
11140
11147
11105
11134
11170
11200
11201
11183
11165
11184
11226
11306
11406
11559
11673
11782
11891
11971
11991
11894
11749
11674
11621
11558
11548
11556
11538
11465
11394
11444
11562
11651
11704
11747
11777
11792
11746
11662
11551
11486
11403
11415
11412
11374
11302
11214
10937
10771
10616
10462
10353
10430
10550
10704
10890
11097
11264
11482
11606
11747
11916
12056
12221
12195
12066
11944
11852
11819
11832
11821
11813
11774
11642
11322
11128
10910
10663
10436
10189
10164
10258
10431
10637
10886
11373
11522
11596
11642
11716
12000
12132
12213
12206
12083
11583
11306
11057
10863
10779
10800
10969
11112
11226
11349
11473
11681
11785
11850
11887
11889
11834
11758
11757
11774
11774
11728
11480
11313
11146
11022
10954
10888
10813
10779
10734
10686
10698
10776
10800
10856
10913
10955
11073
11120
11170
11223
11302
11395
11578
11691
11829
11898
11917
11994
12026
12031
12008
11964
11877
11519
11350
11258
11288
11415
11476
11431
11412
11411
11386
11230
11158
11130
11160
11198
11231
11264
11285
11292
11254
11180
11102
11168
11278
11368
11396
11365
11264
11223
11197
11237
11327
11519
11584
11622
11614
11584
11543
11515
11514
11493
11487
11503
11554
11572
11608
11650
11645
11566
11473
11297
11101
10943
10835
10818
10878
10944
11010
11076
11073
11010
10943
10929
10971
11036
11180
11236
11291
11332
11383
11405
11386
11371
11350
11338
11301
11324
11354
11381
11392
11420
11537
11614
11683
11751
11795
11824
11827
11806
11713
11585
11539
11613
11625
11639
11662
11677
11608
11552
11452
11377
11370
11503
11511
11472
11421
11399
11388
11403
11434
11478
11500
11494
11538
11526
11496
11470
11462
11444
11355
11326
11327
11323
11286
10925
10764
10733
10813
10944
11034
11100
11115
11130
11152
11175
11198
11215
11252
11325
11391
11392
11360
11283
11212
11133
11039
11062
11280
11475
11612
11699
11808
11805
11715
11582
11459
11385
11274
11219
11163
11108
11045
11128
11273
11425
11584
11725
11986
12039
12026
11949
11833
11673
11204
11015
10815
10578
10383
10368
10470
10659
10913
11165
11351
11588
11688
11767
11792
11790
11689
11654
11641
11650
11673
11723
11733
11752
11761
11757
11741
11572
11472
11387
11335
11316
11364
11353
11327
11360
11393
11383
11301
11240
11211
11189
11186
11117
11065
11038
11035
11026
10959
10978
11101
11243
11342
11352
11130
10996
10910
10865
10873
11137
11352
11551
11754
11942
12075
12146
12129
12048
11934
11776
11452
11358
11296
11238
11173
11114
11057
11059
11033
10962
10875
10973
11039
11068
11049
11053
11166
11209
11237
11239
11243
11277
11392
11513
11698
11882
12004
12064
12006
11938
11862
11820
11833
11830
11841
11841
11743
11542
11028
10840
10736
10729
10767
10784
10846
10922
11033
11177
11326
11539
11595
11632
11669
11667
11571
11453
11303
11082
10809
10559
10602
10778
10952
11095
11148
11201
11292
11410
11510
11603
11672
11687
11633
11561
11505
11471
11486
11480
11456
11427
11448
11569
11634
11644
11598
11503
11383
11175
11127
11124
11154
11188
11221
11262
11331
11407
11438
11463
11468
11405
11329
11251
11146
11138
11175
11207
11210
11195
11235
11297
11337
11378
11405
11460
11640
11710
11761
11778
11775
11622
11521
11424
11352
11303
11292
11277
11208
11074
10959
10914
10942
10957
11022
11139
11280
11392
11480
11484
11533
11546
11519
11416
11402
11421
11451
11495
11469
11479
11573
11668
11702
11676
11597
11595
11606
11625
11595
11344
11279
11212
11114
10954
10793
10617
10674
10744
10872
11026
11256
11323
11408
11503
11572
11604
11599
11554
11484
11436
11417
11376
11312
11226
11125
11013
10895
10925
10982
11060
11164
11318
11555
11664
11768
11857
11896
11882
11800
11686
11574
11450
11363
11347
11362
11386
11398
11392
11280
11197
11156
11152
11182
11379
11462
11502
11513
11498
11452
11270
11157
11055
10955
10945
11170
11278
11325
11333
11279
11164
10949
10903
10932
11088
11292
11498
11490
11473
11420
11377
11358
11440
11491
11480
11441
11416
11427
11463
11470
11493
11527
11631
11686
11752
11760
11759
11745
11690
11606
11463
11305
11167
11058
11079
11094
11082
11048
11050
11019
11017
11053
11124
11259
11586
11716
11749
11726
11636
11349
11252
11203
11122
11042
11039
11146
11203
11266
11355
11424
11668
11779
11828
11783
11628
11394
11045
10930
10795
10634
10526
10552
10779
11015
11279
11496
11804
11885
11964
11986
11985
11989
11893
11741
11523
11287
11083
10972
11056
11104
11117
11127
11095
11180
11289
11392
11493
11584
11640
11576
11516
11479
11402
11217
11111
11080
11121
11196
11241
11255
11248
11256
11245
11210
11200
11239
11259
11317
11414
11544
11776
11806
11836
11822
11785
11666
11551
11419
11304
11236
11183
11063
11042
11055
11045
11053
11123
11190
11241
11285
11350
11409
11371
11336
11306
11289
11309
11362
11370
11400
11448
11491
11489
11443
11378
11345
11341
11365
11321
11281
11253
11200
11161
11190
11249
11276
11245
11211
11231
11270
11261
11236
11213
11249
11426
11477
11491
11522
11559
11574
11543
11463
11399
11367
11399
11426
11412
11364
11367
11412
11538
11534
11487
11413
11350
11217
11118
11010
10950
10936
10988
11329
11500
11610
11688
11722
11660
11594
11550
11480
11338
11168
10946
10888
10923
11051
11227
11451
11459
11417
11375
11369
11408
11451
11443
11471
11504
11541
11423
11316
11267
11287
11352
11427
11423
11421
11381
11292
11175
11040
11039
11085
11131
11197
11279
11333
11386
11423
11426
11419
11417
11417
11442
11468
11460
11373
11328
11313
11325
11349
11370
11378
11389
11391
11398
11413
11388
11412
11486
11560
11623
11647
11628
11641
11649
11637
11633
11656
11634
11535
11377
11169
10757
10630
10531
10441
10434
10514
10791
10928
11050
11136
11221
11391
11451
11455
11486
11538
11794
11896
11943
11934
11838
11735
11749
11761
11704
11602
11483
11254
11158
11074
11011
11004
11049
11219
11273
11311
11323
11308
11291
11290
11249
11202
11216
11209
11176
11191
11276
11346
11393
11360
11290
11260
11216
11158
11160
11171
11211
11271
11295
11290
11387
11436
11484
11526
11523
11513
11502
11515
11530
11520
11464
11499
11615
11772
11854
11897
11861
11838
11766
11643
11509
11176
11013
10863
10735
10607
10506
10374
10374
10486
10714
10994
11317
11328
11343
11370
11440
11542
11626
11621
11594
11589
11597
11656
11685
11694
11695
11685
11674
11664
11661
11665
11665
11651
11543
11458
11325
11165
11004
10826
10832
10937
11092
11246
11381
11470
11465
11470
11514
11581
11601
11549
11521
11526
11526
11480
11462
11411
11301
11153
11013
10859
10832
10847
10913
10957
10893
10838
10771
10756
10818
10948
11313
11426
11542
11620
11696
11975
12092
12164
12202
12184
12106
11884
11746
11571
11418
11272
11028
10892
10757
10611
10526
10593
10681
10781
10868
10961
11096
11279
11349
11426
11509
11569
11654
11699
11758
11779
11775
11776
11725
11693
11663
11641
11627
11552
11499
11448
11404
11340
11245
11197
11139
11093
11043
10988
10986
11030
11107
11162
11181
11258
11321
11407
11492
11538
11544
11466
11423
11390
11362
11374
11390
11381
11385
11395
11399
11385
11401
11428
11436
11426
11403
11366
11365
11393
11411
11420
11446
11415
11374
11336
11305
11258
11142
11146
11137
11068
11019
11074
11138
11185
11208
11241
11304
11456
11556
11649
11732
11818
11939
11938
11923
11899
11865
11725
11608
11435
11207
10966
10741
10420
10412
10504
10629
10787
11266
11470
11583
11572
11504
11417
11263
11168
11042
10924
10805
10677
10767
10921
11142
11415
11856
11960
11964
11917
11868
11815
11724
11684
11642
11540
11382
11077
11072
11151
11196
11189
11144
11147
11204
11275
11346
11398
11379
11362
11322
11254
11178
11103
11106
11150
11193
11278
11350
11516
11579
11608
11613
11593
11553
11565
11599
11638
11628
11595
11557
11518
11466
11419
11386
11361
11363
11394
11408
11391
11331
11107
11052
11044
11086
11138
11245
11264
11288
11301
11322
11413
11457
11459
11435
11404
11402
11409
11429
11459
11473
11467
11351
11274
11215
11228
11286
11377
11521
11515
11455
11399
11371
11276
11231
11181
11133
11097
11052
11009
11009
11066
11149
11261
11495
11651
11838
12008
12146
12188
12208
12185
12094
11947
11741
11279
10968
10659
10385
10191
10149
10223
10396
10708
10998
11143
11106
10994
10837
10699
10630
10722
10838
10973
11076
11194
11416
11561
11718
11888
12096
12247
12252
12137
12038
11965
11923
11799
11728
11653
11578
11471
11325
10948
10834
10829
10918
11036
11290
11405
11507
11591
11631
11566
11537
11550
11555
11525
11447
11231
11160
11156
11160
11185
11387
11488
11519
11504
11525
11581
11790
11785
11690
11540
11340
10992
10928
10868
10798
10752
10698
10641
10653
10719
10848
10987
11483
11815
12068
12212
12325
12319
12231
12215
12217
12172
12038
11597
11317
11020
10752
10551
10603
10793
10929
10888
10810
10743
10350
10128
10028
10011
10048
10683
11214
11768
12173
12375
12262
12036
11815
11610
11478
11382
11281
11322
11313
11155
10997
11488
11955
12229
12290
12247
12122
11712
11446
11141
10827
10585
10355
10188
9995
9852
9859
9956
10151
10555
11086
11897
12046
12085
12093
12150
12199
12178
12140
12103
12101
12123
12033
11855
11660
11474
11274
10960
10907
10978
11133
11235
11350
11617
11704
11844
12091
12433
12844
12727
12314
11790
11361
11006
10315
10046
9787
9567
9422
9319
9318
9511
9766
10079
10320
10593
10846
11215
11686
12188
12759
13459
13426
13219
12963
12718
12526
12599
12442
11977
11404
10942
10236
9918
9773
9975
10372
10719
10893
10960
11293
11584
11898
12045
12111
12065
12059
12252
12567
12896
13642
15263
15308
14776
13735
12496
10094
9211
8734
8616
8639
8520
8149
7401
6479
5605
5198
5734
7242
9040
10457
11697
12813
14543
15053
15052
14518
13534
12225
9954
8953
8022
7919
8821
10036
10994
11407
11566
11587
12249
13259
14065
14338
14099
12422
11477
10659
9813
9043
8577
8343
8275
8239
8273
8514
8877
9509
10454
11298
12496
12977
13200
13206
13181
13088
13053
12948
12791
12748
13086
13506
13552
13731
13971
14083
13575
12935
12192
11406
10500
9532
7900
7428
7395
7779
8528
9330
10119
11383
12863
14465
15499
15952
15564
15062
14570
14032
13290
10422
8649
7264
6090
5115
4503
4644
5795
7579
9756
11645
12933
13684
13934
13728
13431
13085
12702
12211
10964
10596
10605
10657
10675
11206
11574
12050
12716
13433
14081
14489
13981
13128
12271
11595
10990
10854
10362
9516
8577
7873
7643
8045
8822
9728
10686
11445
12472
12619
12559
12407
12189
11336
10824
10474
10157
9899
9749
9897
10409
12110
13550
14940
15753
16054
15971
15697
15595
15477
14720
13148
8927
6844
5453
5019
5472
6313
6772
6768
6612
6621
6950
7792
9597
11465
12796
13376
13428
13307
12646
12147
11698
11487
11172
9943
9631
9814
10566
11950
13657
15338
16231
15299
14175
13053
11971
11102
10509
9387
8510
7739
7804
9027
10781
12532
14189
15784
16703
16330
15672
14724
13328
11697
7994
5993
4167
3045
2863
3539
5012
7178
9937
12608
14633
15879
16365
16420
16774
16950
16401
15092
13192
10026
9205
8704
8494
8420
8065
8091
8785
9210
9435
9946
10370
10364
10249
10480
11422
11582
11653
11469
11466
12574
14537
16796
18087
18183
16514
14673
12533
10428
8840
7826
7048
6536
5937
5164
4662
4647
5219
6283
7610
8843
9846
10633
11144
11432
11536
11603
11926
13926
14766
15266
15506
15566
15507
14925
14403
13751
13095
12433
11062
10567
10483
10799
11015
11160
11758
12898
13780
13969
13450
11727
11059
10592
10210
9781
9325
8703
7860
6915
6615
7312
8685
10550
14049
15134
16144
16632
16232
13940
12606
11462
10389
9280
7924
6295
5078
4715
5168
6211
7752
9691
11509
13222
13590
13865
14016
14087
13294
12009
10420
9725
10264
11334
13738
14966
15624
15725
15289
14434
11971
10237
8134
6198
4750
3699
3147
3808
6075
9026
11536
13083
13951
15036
15093
14711
13807
13357
15108
15977
15933
15628
15374
13789
12251
10471
8656
6895
5137
3500
2020
1142
1886
4016
6780
9488
11690
13424
15427
16090
16641
16995
17068
16892
16018
14483
12812
11157
9733
8724
8040
7848
8327
8791
9301
9862
10367
10531
10468
10597
11389
12323
13120
13568
13992
14270
14534
13976
13098
11999
10953
10185
9134
9086
9627
10283
10850
11184
11117
10975
11167
12159
12241
11832
11236
10435
8762
8330
8265
8759
9575
10606
11890
13160
14263
15355
16220
15655
15041
14445
13907
13107
11928
10403
8860
7150
5543
4936
5810
7535
8971
9909
10346
10110
9409
9426
9784
10258
10725
10971
10942
11178
13909
15776
16485
16394
15893
15280
13859
12912
11694
10547
10000
8908
9042
10218
11888
13200
13788
13667
11867
10418
8608
6780
5169
3733
2937
3409
5001
7287
9619
11639
13089
13905
14390
14393
14340
14264
14058
13419
13174
12983
13335
14558
15689
15795
15242
14549
13639
12601
10059
8636
7496
6639
6273
6445
6827
7656
9011
10584
12299
13380
13854
13376
12945
12676
12358
11767
9968
8911
8217
7976
8263
9162
10479
11610
12570
13624
14747
15813
15704
15159
14274
13198
12065
9605
9022
8849
8849
8940
9685
10858
12178
13323
13578
13164
11971
11101
9997
8795
7796
7214
6869
6620
6352
6468
7288
8209
8830
9606
10884
12078
13465
13907
14487
15050
15508
15656
15554
15307
14726
13684
12418
9651
8490
7660
7265
7224
7532
8380
9480
10397
11049
11763
12605
13359
13836
13684
13498
13264
12972
12440
12408
12488
12653
12786
12948
13086
13201
13101
12603
11648
9673
8769
8275
8311
8438
8748
9123
9778
10567
11288
11686
11505
10923
9265
8605
8325
8560
9832
12129
14481
16192
17413
17921
16802
15554
13887
11787
9361
6662
4024
2021
1318
2142
3557
6571
8382
10053
11451
12595
13347
13743
13948
14453
15099
15664
15825
15704
15082
14783
14517
14247
13823
13219
11850
11202
10390
9728
9454
9400
9557
9721
9946
10145
10280
10195
10284
10497
10649
10808
11138
10872
10526
10609
11139
11722
11704
11637
11627
11655
11942
11963
11452
11122
11019
11052
11515
11814
11868
11766
11341
10706
10904
11360
11769
12091
12211
11431
10491
9652
9272
9365
9695
10234
10946
11571
12036
12179
12360
12492
12594
12625
12502
12496
12812
13104
13120
12456
12131
11675
11202
10770
9217
8116
7261
7588
8836
10273
11548
12544
13069
13185
13560
13574
13119
12358
11793
11552
10083
9847
10383
10921
11117
10764
9008
8620
8610
8394
7821
7659
8275
9399
10580
11572
12365
12845
13063
13044
13039
12957
12819
12623
12133
11979
11845
11744
11688
11811
12418
12646
12871
13074
13177
13102
12976
12715
12277
11692
10239
9775
9292
8950
8889
8909
9156
9754
10401
10972
11493
11950
12617
12771
12740
12659
12422
12088
11361
10919
10985
11299
11408
10857
10384
9875
9502
9371
9376
9393
9296
9416
9894
10533
11223
11774
12198
12249
12275
12282
12328
12553
12713
12708
12564
12386
12197
11967
11845
11687
11454
11126
10546
10598
10839
11079
11235
11542
11757
11871
11841
11711
11471
10679
10140
9600
9347
9601
10160
10613
10928
11584
11870
12111
12224
12262
12253
12358
12420
12304
12035
11635
10934
10653
10498
10564
10752
10944
11008
11188
11457
11760
11944
11744
11625
11510
11323
11157
11072
11025
10940
10844
10784
10731
10600
10463
10466
10593
10762
11212
11407
11508
11598
11736
12141
12400
12556
12581
12453
12276
12109
12022
11866
11652
11358
10604
10198
9930
10042
10416
10945
11775
12123
12266
12172
11940
11640
11104
10823
10496
10249
10086
9879
9929
10098
10399
10821
11244
11526
11696
11813
11816
11779
11727
11680
11648
11686
11738
11768
11728
11617
11593
11606
11637
11612
11539
11459
11467
11550
11666
11848
12449
12614
12674
12644
12577
12479
12148
11829
11241
10546
9850
9149
8547
8282
8520
9260
10015
10874
11047
11151
11209
11227
11424
11584
11773
12001
12187
12396
12380
12172
11905
11702
11525
11111
10765
10477
10319
10246
10337
10458
10621
10883
11103
11280
11726
11898
11934
11867
11797
11744
11808
11859
11866
11842
11750
11666
11589
11551
11534
11514
11295
11097
11029
11100
11247
11515
11647
11799
11907
11920
11873
11598
11511
11486
11449
11348
10921
10646
10403
10263
10240
10621
10929
11188
11364
11500
11589
11486
11441
11483
11500
11508
11508
11442
11333
11232
11220
11285
11359
11309
11257
11199
11177
11423
11547
11594
11529
11456
11418
11287
11257
11258
11198
11045
11064
11169
11293
11410
11495
11441
11358
11309
11294
11285
11253
11184
11166
11186
11214
11246
11330
11375
11438
11477
11503
11521
11496
11467
11425
11393
11390
11383
11405
11473
11617
11787
11902
11882
11833
11818
11844
11815
11637
11461
11242
11035
10855
10637
10610
10623
10712
10809
10856
10865
10809
10854
10927
10914
10599
10498
10420
10374
10447
10647
11180
11416
11613
11744
11827
11915
11913
11894
11848
11798
11665
11609
11576
11564
11564
11578
11633
11638
11638
11629
11630
11613
11579
11540
11508
11475
11420
11345
11350
11345
11318
11291
11245
11253
11259
11269
11293
11288
11247
11181
11129
11087
11063
11073
11090
11093
11121
11177
11370
11452
11500
11526
11533
11536
11556
11533
11487
11411
11321
11142
11079
11060
11104
11181
11331
11348
11369
11407
11449
11475
11481
11442
11372
11312
11257
11125
11038
10984
10992
11018
11073
11255
11325
11349
11371
11410
11525
11606
11631
11621
11601
11568
11506
11540
11544
11569
11620
11659
11697
11820
11911
11929
11825
11744
11652
11481
11223
10949
10408
10193
9980
9869
9905
10043
10215
10340
10460
10561
10765
11001
11200
11515
11640
11720
11719
11674
11601
11507
11564
11678
11770
11795
11745
11743
11744
11722
11688
11643
11552
11510
11501
11508
11497
11468
11451
11455
11448
11480
11589
11578
11521
11467
11407
11358
11361
11373
11370
11342
11287
11189
11179
11165
11173
11178
11183
11141
11030
10954
10965
11023
11167
11244
11283
11305
11317
11326
11313
11282
11259
11236
11242
11263
11317
11375
11429
11465
11520
11502
11471
11416
11355
11302
11275
11293
11326
11365
11397
11426
11406
11400
11430
11498
11593
11706
11661
11615
11596
11591
11653
11607
11522
11398
11235
10935
10753
10588
10451
10408
10464
10882
11018
11116
11242
11356
11426
11377
11285
11191
11075
11020
11097
11190
11265
11321
11331
11372
11474
11590
11664
11688
11705
11696
11649
11602
11584
11559
11417
11422
11562
11737
11868
12001
12037
11988
11870
11722
11582
11219
11036
10865
10714
10614
10410
10343
10375
10466
10573
10720
10969
11046
11121
11224
11346
11487
11526
11551
11591
11692
11876
11864
11829
11834
11824
11759
11512
11409
11339
11253
11148
11041
11031
11033
10989
10883
10845
11063
11171
11254
11357
11434
11521
11519
11464
11386
11343
11418
11407
11386
11383
11396
11400
11475
11480
11470
11447
11448
11446
11444
11440
11445
11448
11436
11390
11364
11358
11331
11295
11221
11203
11227
11282
11346
11428
11453
11461
11453
11443
11430
11340
11254
11180
11126
11074
10946
10938
10961
11004
11055
11104
11188
11230
11257
11237
11226
11296
11263
11195
11157
11170
11228
11384
11439
11487
11506
11528
11672
11777
11894
11977
11991
12080
12072
12010
11897
11779
11693
11445
11279
11101
10888
10681
10300
10047
9853
9815
9909
10115
10368
10600
10935
11118
11282
11500
11699
11829
11828
11769
11738
11692
11627
11539
11524
11479
11452
11426
11422
11372
11359
11374
11385
11366
11356
11419
11486
11550
11588
11594
11546
11516
11505
11508
11508
11492
11455
11400
11327
11280
11313
11344
11378
11405
11416
11412
11422
11506
11648
11789
11875
11918
11938
11960
11960
11894
11750
11228
10890
10610
10363
10182
10158
10228
10271
10292
10316
10318
10393
10527
10745
11001
11225
11579
11701
11790
11856
11895
11883
11859
11848
11868
11870
11889
11894
11904
11910
11905
11895
11708
11597
11472
11368
11285
11296
11273
11201
11138
11109
11029
10727
10677
10695
10771
10858
11046
11169
11310
11395
11410
11413
11457
11449
11416
11405
11415
11505
11549
11610
11638
11642
11546
11493
11445
11350
11222
11102
10947
10912
10886
10850
10830
10930
11057
11166
11265
11370
11447
11608
11635
11596
11551
11519
11535
11581
11616
11618
11583
11527
11434
11418
11377
11336
11302
11292
11290
11288
11251
11233
11185
11108
11064
11073
11093
11085
11059
11009
10985
10996
11010
11061
11156
11286
11427
11571
11660
11746
11770
11785
11775
11748
11658
11576
11482
11356
11258
11149
11105
11080
11062
11052
11067
11227
11333
11411
11454
11499
11624
11660
11638
11489
11283
11139
11095
11090
11111
11132
11161
11142
11110
11172
11265
11379
11479
11574
11535
11493
11438
11379
11326
11299
11254
11206
11183
11064
10974
10985
11089
11173
11225
11163
11082
11057
11095
11202
11288
11274
11276
11330
11408
11464
11539
11532
11526
11519
11524
11533
11524
11521
11496
11457
11344
11347
11384
11454
11530
11552
11520
11529
11520
11503
11470
11487
11476
11430
11351
11253
11144
11054
11071
11117
11169
11234
11357
11364
11319
11250
11177
11161
11197
11184
11149
11093
11034
10987
11021
11082
11168
11256
11398
11489
11561
11597
11610
11590
11540
11528
11486
11401
11312
11184
11163
11164
11213
11294
11367
11418
11372
11319
11254
11149
10951
10957
10985
10970
10958
11034
11151
11331
11541
11733
11843
11808
11745
11677
11573
11471
11421
11462
11474
11441
11394
11355
11313
11264
11215
11190
11191
11257
11244
11198
11157
11166
11233
11258
11247
11254
11324
11394
11574
11613
11651
11639
11583
11418
11395
11385
11342
11252
11191
11218
11248
11286
11336
11391
11523
11517
11496
11467
11412
11323
11181
11111
11060
11052
11091
11222
11263
11286
11320
11352
11353
11282
11244
11234
11213
11200
11171
11144
11094
11072
11116
11310
11380
11444
11504
11530
11546
11488
11446
11422
11413
11390
11328
11326
11325
11338
11349
11226
11146
11179
11317
11433
11445
11309
11235
11195
11173
11143
11008
11026
11085
11137
11180
11225
11263
11280
11337
11404
11486
11569
11585
11567
11511
11447
11292
11178
11099
11055
11068
11137
11418
11517
11578
11609
11610
11583
11545
11522
11542
11583
11600
11443
11346
11266
11223
11184
11201
11179
11138
11108
11064
11038
11130
11229
11338
11408
11453
11454
11410
11353
11315
11291
11323
11327
11237
11091
10995
10996
11061
11136
11254
11372
11467
11651
11767
11837
11889
11916
11890
11790
11713
11592
11467
11361
11149
11007
10866
10738
10723
10883
10999
11102
11160
11096
10989
10707
10623
10634
10731
10872
11164
11329
11488
11699
11954
12185
12462
12494
12473
12354
12136
11590
11392
11194
11016
10880
10760
10599
10615
10723
10846
10955
11158
11246
11326
11379
11400
11304
11282
11269
11281
11299
11308
11364
11403
11454
11472
11469
11465
11486
11504
11500
11487
11464
11401
11356
11300
11223
11151
11111
11156
11196
11214
11220
11164
11105
11042
11055
11172
11281
11331
11308
11276
11207
11136
11064
11063
11098
11170
11267
11369
11532
11597
11654
11686
11707
11760
11820
11890
11910
11876
11720
11610
11509
11387
11246
11093
10995
11010
11044
11083
11108
11172
11142
11132
11111
11084
11055
11025
11024
11067
11130
11183
11277
11296
11345
11381
11370
11330
11275
11249
11246
11305
11390
11629
11711
11773
11786
11766
11750
11704
11603
11498
11417
11342
11108
11055
11036
10991
10935
10786
10683
10659
10699
10798
10981
11457
11704
11950
12166
12303
12359
12294
12204
12028
11767
11193
10960
10840
10831
10852
10872
10882
10869
10841
10825
10841
11003
11083
11133
11161
11173
11206
11256
11270
11242
11210
11178
11176
11177
11154
11127
11111
11070
10852
10868
10951
11062
11194
11439
11531
11650
11795
11923
12157
12249
12368
12447
12459
12419
12109
11899
11680
11511
11370
11011
10818
10717
10709
10756
10818
10938
10986
10996
11001
11014
11040
11034
11028
11012
10992
10999
10908
10810
10732
10665
10613
10819
11054
11267
11443
11542
11686
11784
11907
12075
12242
12381
12471
12469
12395
12218
12015
11594
11383
11173
10973
10831
10691
10676
10698
10728
10783
10866
10946
11010
11107
11172
11232
11258
11264
11266
11246
11173
11120
11243
11321
11362
11356
11336
11290
11235
11130
11044
11061
11147
11320
11322
11328
11314
11295
11277
11309
11385
11448
11502
11523
11490
11472
11475
11469
11450
11471
11495
11509
11500
11497
11466
11502
11538
11532
11399
11176
10636
10418
10364
10459
10608
10963
11090
11171
11245
11377
11671
11760
11845
11934
11940
11885
11811
11761
11770
11760
11689
11462
11356
11242
11157
11122
11138
11279
11358
11441
11508
11561
11681
11731
11750
11729
11652
11513
11167
11104
11120
11101
11014
10820
10755
10736
10700
10688
10816
10859
10924
11006
11126
11268
11609
11715
11749
11701
11635
11506
11444
11405
11371
11327
11311
11330
11342
11368
11392
11415
11519
11464
11328
11219
11133
11072
11060
11070
11131
11181
11178
11211
11230
11225
11198
11140
11056
11134
11228
11275
11312
11328
11406
11436
11440
11416
11376
11358
11381
11418
11439
11474
11581
11610
11626
11598
11529
11416
11173
11159
11223
11283
11294
11164
11113
11139
11187
11220
11190
10604
10318
10206
10258
10414
10848
11104
11312
11477
11669
11864
12262
12407
12517
12591
12627
12640
12640
12589
12529
12487
12191
11994
11750
11461
11172
10898
10502
10324
10213
10254
10383
10611
10716
10778
10797
10793
10778
10846
10869
10879
10900
10953
11176
11280
11391
11462
11503
11559
11579
11608
11624
11640
11617
11409
11287
11173
11114
11098
11130
11168
11184
11192
11204
11259
11349
11343
11331
11304
11300
11304
11319
11353
11383
11383
11371
11396
11402
11380
11333
11299
11289
11301
11329
11321
11307
11350
11362
11362
11379
11418
11441
11324
11238
11165
11107
11071
10988
10905
10849
10840
10885
11011
11387
11580
11790
11953
12044
11935
11909
11920
11877
11774
11553
11453
11359
11261
11156
11040
10847
10815
10742
10669
10606
10530
10554
10627
10760
10951
11181
11568
11751
11838
11798
11785
12138
12279
12369
12381
12321
12181
12073
11940
11765
11588
11384
10988
10842
10795
10779
10715
10644
10651
10686
10765
10869
10989
11121
11136
11118
11120
11131
11183
11244
11350
11474
11559
11600
11569
11495
11422
11374
11359
11327
11311
11269
11214
11218
11261
11259
11251
11240
11253
11279
11295
11270
11237
11187
11131
11126
11168
11226
11249
11245
11249
11220
11177
11194
11285
11400
11490
11484
11474
11468
11471
11498
11455
11384
11323
11276
11263
11339
11413
11517
11630
11716
11675
11558
11429
11276
11112
10938
10648
10561
10530
10554
10603
10796
10929
11125
11359
11554
11661
11660
11704
11763
11805
11870
12108
12130
12132
12089
12007
11753
11604
11459
11301
11163
11040
10810
10820
10891
11010
11118
11349
11408
11342
11222
11155
11143
11035
10960
10917
10903
10894
10946
10969
11002
11111
11263
11444
11474
11522
11581
11656
11742
11724
11684
11635
11552
11444
11274
11172
11052
10980
10980
11020
10992
10945
10916
10932
11002
11345
11521
11645
11708
11731
11749
11721
11687
11625
11577
11580
11599
11573
11546
11538
11538
11473
11373
11277
11179
11028
10887
10742
10751
10807
10879
10941
11104
11185
11272
11320
11349
11354
11328
11295
11275
11260
11276
11270
11255
11280
11319
11354
11429
11467
11481
11487
11526
11597
11698
11680
11592
11429
11269
11027
10889
10799
10804
10888
11001
11199
11325
11444
11520
11562
11556
11508
11425
11347
11255
11109
11118
11125
11120
11089
11138
11419
11496
11558
11623
11694
11710
11673
11624
11565
11416
11175
10795
10692
10634
10663
10782
11073
11211
11367
11514
11631
11764
11911
11928
11942
11955
11913
11645
11482
11295
11128
11039
10935
10900
10904
10994
11110
11211
11443
11547
11618
11618
11567
11416
11384
11449
11466
11449
11415
11132
10985
10902
10882
10911
11038
11118
11214
11314
11404
11519
11559
11589
11589
11582
11607
11564
11504
11450
11370
11287
11135
11062
10988
10954
10973
11067
11216
11239
11224
11169
11102
10935
10815
10711
10620
10546
10595
10701
10824
10962
11058
11137
11444
11552
11614
11658
11690
11820
11896
11992
12069
12140
12212
12282
12217
12116
11990
11779
11280
11053
10892
10814
10837
10967
11297
11419
11527
11640
11747
11840
11801
11779
11775
11765
11696
11596
11450
11265
11009
10796
10818
10877
10920
10982
11035
11088
11169
11230
11262
11250
11209
11028
10915
10779
10664
10603
10643
10694
10756
10839
10929
11091
11186
11334
11471
11566
11616
11640
11651
11616
11534
11475
11418
11331
11213
11000
10769
10647
10601
10663
10774
10909
11081
11584
11877
12153
12404
12578
12656
12550
12348
12148
11919
11696
11318
11192
11097
11041
11049
10972
10954
10953
10973
10999
11002
11157
11317
11388
11383
11472
11837
11916
11902
11873
11847
11753
11322
11125
10975
10877
10836
10798
10778
10737
10674
10630
10728
10802
10914
11031
11142
11235
11503
11641
11728
11798
11802
11678
11623
11586
11564
11541
11510
11479
11456
11431
11360
11278
10921
10707
10600
10583
10620
10751
10843
10919
11041
11219
11420
11675
11724
11810
11876
11893
11807
11781
11733
11664
11625
11589
11407
11217
11042
10929
10870
10811
10771
10777
10853
10995
11181
11517
11653
11772
11849
11865
11747
11655
11582
11563
11568
11335
11114
10972
10888
10811
10668
10615
10788
10975
11150
11305
11476
11547
11641
11678
11684
11710
11800
11832
11856
11859
11799
11538
11337
11084
10882
10757
10682
10724
10789
10846
10943
11073
11385
11567
11753
11928
12072
12080
11969
11822
11652
11489
11355
11186
11125
11070
11039
11054
11177
11216
11206
11174
11106
11051
10919
10866
10814
10746
10698
10791
10868
10954
11053
11186
11492
11630
11742
11820
11792
11682
11494
11497
11482
11416
11382
11438
11363
11323
11363
11390
11422
11337
11274
11258
11288
11326
11447
11536
11582
11593
11540
11400
11350
11300
11218
11130
11084
11034
11004
10983
10977
10991
10938
10876
10819
10863
10957
11070
11261
11366
11473
11611
11774
11908
11871
11811
11768
11740
11695
11719
11713
11703
11717
11708
11562
11385
11170
10995
10881
10755
10818
10934
11019
11082
11083
11154
11263
11392
11473
11513
11495
11465
11405
11384
11425
11463
11424
11376
11378
11404
11356
11079
10991
10945
10912
10926
11045
11097
11156
11256
11370
11470
11675
11719
11711
11607
11509
11348
11374
11429
11429
11397
11370
11181
11084
11059
11078
11125
11185
11145
11133
11174
11209
11133
11130
11157
11129
11115
11145
11174
11112
11021
10977
10988
11134
11264
11390
11486
11551
11595
11777
11807
11849
11883
11861
11706
11615
11558
11514
11462
11400
11424
11503
11578
11634
11607
11287
11195
11217
11245
11262
11295
11328
11350
11391
11409
11386
11259
11180
11119
11098
11083
10959
10938
10938
10914
10896
10910
10943
10905
10883
10903
10909
10690
10647
10733
10887
11083
11585
11789
11966
12078
12092
12020
11858
11828
11774
11676
11572
11384
11338
11321
11339
11337
11332
11365
11368
11390
11405
11449
11505
11514
11482
11420
11330
11248
11229
11218
11213
11153
11087
11004
10932
10831
10751
10686
10583
10560
10608
10720
10917
11190
11830
12089
12235
12319
12390
12406
12279
12073
11850
11655
11476
11131
10995
10914
10886
10883
10929
10961
10979
11010
10994
10880
10719
10572
10539
10602
10751
11196
11419
11538
11608
11681
11722
11732
11807
11909
12032
12132
12121
12014
11895
11776
11646
11273
11083
10897
10739
10624
10620
10732
10857
11000
11164
11236
11292
11324
11288
11210
11158
11134
11109
11078
11040
10997
10992
11113
11275
11439
11550
11596
11647
11661
11627
11590
11535
11481
11444
11470
11466
11433
11402
11508
11536
11552
11559
11515
11435
11418
11366
11297
11214
11126
11048
11069
11128
11203
11252
11289
11331
11379
11426
11469
11416
11210
11162
11142
11098
11052
11144
11240
11337
11447
11507
11487
11508
11555
11559
11540
11508
11222
10999
10809
10658
10619
10883
11066
11196
11264
11356
11405
11380
11299
11223
11170
11124
11220
11389
11563
11681
11735
11555
11341
11168
11130
11164
11223
11242
11264
11367
11447
11524
11709
11703
11669
11613
11558
11524
11473
11453
11424
11365
11312
11191
11160
11146
11124
11081
11075
11177
11193
11211
11277
11326
11309
11245
11227
11264
11318
11391
11423
11467
11494
11489
11510
11617
11588
11552
11562
11574
11467
11396
11367
11346
11346
11332
11143
11062
11043
11071
11084
11067
11083
11119
11158
11179
11042
10967
10969
11037
11135
11232
11427
11468
11487
11483
11496
11481
11453
11433
11414
11366
11285
11010
10868
10856
10958
11103
11304
11392
11448
11490
11506
11427
11194
11142
11174
11270
11367
11497
11530
11523
11510
11558
11652
11622
11563
11506
11499
11484
11373
11255
11141
11083
11096
11211
11281
11277
11178
11090
11063
11114
11136
11179
11244
11288
11454
11517
11515
11516
11511
11420
11353
11336
11380
11425
11436
11334
11297
11306
11367
11416
11284
11175
11126
11136
11171
11222
11257
11257
11267
11295
11325
11395
11364
11317
11262
11184
11153
11187
11212
11160
11104
11085
11091
11047
11049
11141
11262
11361
11402
11484
11562
11610
11610
11536
11490
11495
11523
11554
11709
11817
11823
11768
11715
11660
11520
11374
11193
10989
10832
10652
10619
10680
10821
10980
11290
11423
11549
11629
11624
11626
11584
11503
11426
11347
11271
11231
11204
11141
11104
11067
11020
10889
10905
10951
11011
11086
11285
11353
11422
11503
11569
11656
11695
11737
11711
11671
11612
11529
11470
11402
11339
11304
11265
11169
11087
11051
11067
11159
11266
11291
11337
11366
11360
11297
11235
11194
11188
11197
11210
11204
11230
11256
11288
11304
11296
11237
11220
11289
11432
11740
11770
11766
11699
11596
11496
11388
11324
11271
11216
11155
11067
11056
11020
10991
11014
11058
11171
11141
11130
11103
11050
11081
11223
11353
11396
11419
11443
11446
11476
11532
11552
11516
11295
11193
11138
11155
11243
11420
11562
11702
11774
11779
11736
11482
11351
11226
11121
11078
11144
11213
11275
11261
11174
11095
11105
11155
11234
11316
11388
11528
11561
11561
11559
11600
11584
11599
11683
11709
11653
11589
11497
11383
11268
11187
11095
10876
10810
10721
10567
10422
10326
10463
10664
10865
11041
11186
11346
11412
11478
11544
11609
11563
11514
11484
11455
11457
11483
11568
11573
11571
11532
11508
11534
11578
11650
11717
11752
11726
11593
11527
11499
11496
11480
11330
11258
11200
11115
11038
11010
11051
11095
11133
11166
11192
11249
11259
11308
11329
11353
11398
11412
11445
11485
11526
11573
11576
11507
11365
11168
10992
10835
10873
10968
11084
11140
11174
11177
11147
11101
11050
11020
10902
10815
10773
10843
11028
11481
11611
11681
11729
11744
11757
11692
11669
11657
11643
11629
11616
11595
11589
11591
11573
11550
11505
11464
11426
11404
11390
11417
11391
11327
11236
11150
11064
11018
10979
10945
10973
11045
11165
11210
11218
11202
11194
11248
11328
11424
11506
11572
11629
11582
11523
11462
11387
11259
10906
10763
10721
10731
10788
10855
10981
11036
11120
11252
11376
11559
11615
11621
11574
11539
11446
11408
11402
11438
11464
11488
11506
11513
11512
11526
11524
11506
11490
11500
11502
11485
11467
11365
11296
11243
11209
11197
11129
11060
11007
11000
11006
11115
11206
11283
11310
11321
11322
11408
11446
11457
11430
11401
11302
11264
11237
11253
11255
11260
11271
11266
11272
11265
11248
11220
11236
11267
11306
11340
11374
11372
11381
11388
11419
11441
11479
11495
11514
11514
11512
11436
11387
11352
11310
11228
11153
11077
11084
11093
11080
11079
11152
11191
11213
11218
11246
11300
11361
11360
11366
11392
11431
11481
11501
11506
11520
11555
11581
11524
11429
11325
11225
11142
11167
11212
11258
11313
11351
11333
11293
11274
11306
11362
11382
11323
11278
11247
11204
11177
11158
11138
11179
11236
11258
11186
11179
11215
11250
11264
11246
11173
11141
11139
11165
11257
11492
11531
11542
11541
11518
11495
11398
11357
11346
11370
11384
11293
11227
11173
11148
11159
11237
11260
11273
11299
11336
11366
11388
11375
11360
11353
11391
11505
11531
11542
11534
11534
11539
11506
11470
11425
11376
11331
11267
11256
11241
11219
11187
11158
11053
10998
10944
10894
10859
10884
10980
11095
11194
11249
11387
11445
11473
11482
11473
11468
11447
11452
11447
11447
11449
11510
11562
11598
11616
11629
11646
11695
11751
11836
11855
11867
11894
11815
11715
11573
11354
10865
10678
10480
10262
10079
10039
10148
10218
10307
10456
10693
11176
11308
11405
11508
11604
11687
11746
11727
11728
11718
11675
11553
11504
11478
11478
11498
11529
11539
11534
11550
11565
11588
11581
11572
11552
11521
11485
11520
11551
11548
11540
11540
11541
11444
11360
11286
11213
11141
11192
11248
11221
11143
11064
11000
10954
10992
11044
11102
11113
11080
11019
10923
10868
10876
10956
11049
11121
11159
11241
11349
11517
11638
11845
12047
12151
12221
12222
12224
12146
12024
11865
11388
11035
10667
10315
9984
9699
9616
9791
10149
10686
10831
11105
11454
11700
11744
11700
11667
11617
11597
11649
11820
11922
12051
12137
12159
11978
11811
11647
11509
11395
11247
11196
11173
11155
11129
11101
10883
10731
10654
10701
10817
10868
10827
10791
10903
11138
11304
11436
11473
11441
11432
11510
11773
11829
11838
11782
11655
11123
10836
10558
10292
10027
9873
9965
10242
10852
11223
11568
11883
12092
12405
12704
12960
12968
12786
12579
12112
11859
11628
11394
11117
10434
10083
9929
9936
10096
10205
10254
10754
11042
11276
11525
11815
12137
12539
12450
12213
11817
11387
10929
10956
10981
10923
10774
10266
9957
9832
9984
10394
10942
11468
11825
11993
12334
12547
12669
12690
12653
12292
11944
11635
11329
11051
10350
9899
9672
9742
10042
10532
11036
11482
11975
12650
12779
12738
12569
12245
11426
11236
11138
10939
10634
10215
10229
10237
10225
10341
10545
10920
11046
11199
11417
11631
12201
12315
12308
12234
12128
11968
11308
10905
10543
10316
10208
10457
10643
10771
10922
11251
11656
12086
12148
12116
11949
11613
11136
11244
11324
11284
11233
11436
11588
11608
11507
11374
11295
10948
10685
10285
10009
10002
10599
10983
11282
11560
11850
12240
12965
13149
13257
13258
13105
12352
11998
11867
11808
11815
11628
11390
11090
10775
10519
10373
10471
10498
10400
10223
10004
9553
9487
9452
9566
9828
10166
10593
11153
11706
12035
11852
11665
11719
11746
11763
11800
12225
12620
12792
12677
12539
12170
11871
11637
11497
11328
10841
10466
10194
10141
10381
10712
11105
11152
11148
11054
10766
10739
11020
11121
11139
11321
11738
13161
13730
13896
13800
13531
12431
11592
10770
10063
9457
8931
8531
8289
8300
8494
8809
9211
9915
10744
12823
13940
14506
14535
14220
12930
12099
11226
10270
9338
8794
8852
9637
10202
9756
9941
10482
11096
11550
11944
12295
12536
12189
11618
10948
10438
10182
10239
10558
10942
11221
11264
11692
12262
12968
13804
14419
14753
14753
14544
14294
13890
13275
11392
10124
8738
7377
6149
5210
5008
5763
6837
7600
8212
8880
9709
10727
11882
12955
14059
14217
14116
13887
13573
12830
12650
12647
12922
13327
13368
12806
12564
12374
12295
12241
12260
11755
11045
10237
10125
10614
10273
9903
9850
10131
10339
10321
10372
10384
9865
9107
8520
8444
8637
8919
9241
10012
10925
11399
11728
12019
12435
12925
13257
13447
12947
12063
11007
10068
9265
8798
8893
9411
10025
11483
12562
13718
14642
15056
15085
14928
14507
13987
13575
13152
13022
12340
11456
10994
10956
11243
11459
11187
10452
9385
7930
6377
5291
4896
5152
6138
7471
8839
10062
11980
12516
12690
12648
12643
12638
12417
12160
11847
11517
11430
12223
12873
13277
13389
13236
12545
12214
12202
12420
12382
11782
11366
10630
9778
9344
9564
9749
9856
10329
10975
12141
12388
12236
11936
11751
11720
11392
11135
11466
12521
13908
14968
14539
13716
12755
11939
11244
9483
8262
7127
6226
5271
4393
4204
4732
5740
7300
8910
10402
11532
12327
12964
13965
14138
14287
14554
14766
14875
15196
15256
14992
14440
13717
12545
12172
11846
11702
12128
12461
11882
11372
11366
11702
12003
12173
11591
10288
8774
7581
6731
6212
6033
6584
7577
8589
9743
10947
11794
12066
11550
10599
9642
9127
9233
9790
10349
10650
10722
10770
11069
11620
12244
12876
13376
14347
15886
17045
17979
18593
18662
17939
16564
14708
10292
7941
5199
2224
212
9
9
701
3169
5639
7591
9158
10443
11633
12729
13736
14966
17784
18659
18795
18351
17459
16465
14435
13260
11793
9769
7218
5038
3358
1960
1348
2013
3594
5545
7736
9907
11504
13875
15337
16375
17213
18111
18643
17941
16895
15768
14776
13834
11781
10544
9273
8598
8238
7833
7981
8953
10438
11341
11144
8782
7847
7214
7010
7032
7088
7082
7136
7508
8484
9646
11032
12353
13204
13589
13131
12545
12073
11807
11621
11435
11687
11772
11833
12049
12666
15069
16229
17793
19223
20253
20748
19157
17811
16545
14735
12285
6686
4041
1790
224
224
9
9
9
986
3090
4785
5723
6046
6220
6388
6673
7475
8846
10472
11709
12184
12460
14271
15368
16115
16355
16214
15911
16131
16570
16747
16768
17174
17575
17353
16662
15457
13788
10511
9281
8393
8297
9077
9834
10051
9813
9327
8847
8263
7356
6416
5882
5760
5862
5759
5698
5940
6382
7453
9098
10999
12645
14429
14485
14230
13874
13630
13631
13670
13148
12568
12275
11974
12025
12360
12791
13171
13307
13248
13597
13678
13110
12163
11340
11371
12219
12630
12429
12036
11755
12337
12857
12932
12134
10460
7780
7499
8117
9101
9634
9412
9116
9073
9075
8883
8671
8609
8669
8561
8191
7937
8065
8591
9575
10957
12275
13228
14138
14159
14086
13920
13544
13031
12160
11748
11393
11121
11028
11552
11819
12027
12362
12709
13010
14501
15684
16637
17170
17473
16618
15297
13835
12198
9924
7259
4843
2819
1301
141
9
579
3158
6043
8694
10611
11953
13021
13900
14469
14722
14302
13489
12434
11571
11244
11419
11589
11681
11857
12239
12793
12813
12744
12643
12521
12286
12201
12147
12087
11996
11888
11655
11515
11414
11452
11558
11616
11574
11532
11546
11641
11855
11897
11757
11563
11315
11079
11262
11533
11871
12033
11764
10812
10559
10461
10516
10674
10825
10290
9583
8815
8500
8974
9837
10598
11030
11155
11056
10619
10522
10594
10807
11137
11766
11975
12084
12108
12101
12057
11943
11887
11859
11940
12022
11950
11829
11777
11849
11938
11982
11886
11881
11949
11917
11762
11658
11702
11626
11263
10768
10138
10436
10902
11169
11246
11319
11197
10972
10772
10589
10363
9848
9604
9701
10207
10913
11472
11830
12025
11964
11592
11249
11063
11038
11203
11859
12272
12537
12597
12661
12803
12443
11769
11072
10515
10067
9438
9433
9728
9904
10046
10182
10133
10167
10493
11335
11527
11543
11461
11344
11202
11345
11578
11808
11918
12100
12217
12286
12286
12258
12287
12228
12086
11934
11775
11671
11362
11124
10866
10684
10546
10550
10800
10930
11086
11236
11300
11115
10986
10964
11060
11204
11340
11447
11448
11456
11445
11440
11463
11453
11476
11506
11519
11686
11669
11575
11462
11324
11235
11074
11013
10998
11000
11054
10924
10903
11014
11165
11251
11261
11160
11143
11156
11202
11262
11397
11481
11575
11674
11745
11644
11533
11396
11264
11165
11097
11097
11119
11098
11017
10976
10880
10839
10909
11042
11176
11312
11475
11432
11446
11578
11730
11843
11783
11708
11651
11610
11595
11738
11671
11396
11120
11048
11141
11076
10990
10913
10884
10604
10431
10459
10685
10983
11218
11374
11309
11229
11118
10920
10451
10338
10447
10751
11107
11399
11820
12083
12265
12309
12276
12082
11898
11689
11479
11293
10891
10790
10690
10586
10520
10565
10732
10849
11036
11225
11416
11798
11932
12005
12161
12381
12465
12203
11950
11672
11447
11191
10608
10400
10311
10346
10459
10711
10873
11091
11288
11366
11358
11537
11624
11629
11577
11482
11256
11142
11020
10952
10904
10853
10909
11051
11164
11232
11283
11473
11554
11589
11609
11635
11644
11649
11635
11588
11545
11519
11461
11427
11409
11422
11458
11503
11520
11485
11441
11385
11348
11286
11241
11226
11265
11282
11295
11279
11298
11358
11387
11346
11223
11223
11243
11198
11105
10832
10798
10850
10891
10859
10797
10842
10903
10961
11058
11181
11320
11357
11414
11451
11494
11560
11556
11548
11516
11478
11409
11307
11293
11317
11365
11460
11680
11812
11911
11908
11865
11788
11661
11583
11458
11296
11101
10710
10524
10353
10290
10375
10690
10823
10949
11038
11068
11089
11139
11138
11149
11239
11343
11409
11433
11483
11543
11568
11567
11491
11473
11487
11502
11459
11343
11268
11182
11136
11157
11324
11401
11421
11404
11376
11356
11330
11330
11320
11318
11332
11408
11412
11424
11435
11443
11473
11532
11528
11502
11511
11506
11394
11282
11165
11077
10999
10944
10918
10889
10872
10859
10860
10988
11095
11206
11276
11335
11404
11430
11428
11407
11380
11359
11345
11397
11467
11546
11615
11724
11739
11699
11595
11475
11375
11235
11213
11153
11063
10970
10849
10824
10824
10900
11015
11189
11240
11266
11253
11240
11251
11343
11377
11378
11370
11368
11392
11382
11382
11379
11359
11335
11262
11259
11304
11369
11444
11551
11562
11565
11589
11631
11762
11789
11757
11678
11610
11547
11307
11147
11032
10964
10918
10898
10846
10760
10624
10454
10353
10504
10697
10903
11016
11041
11091
11216
11364
11486
11595
11715
11946
11988
11985
11931
11848
11683
11553
11423
11291
11170
10931
10871
10778
10653
10519
10489
10856
11085
11222
11307
11336
11317
11339
11385
11422
11439
11461
11514
11567
11623
11665
11669
11666
11686
11700
11738
11776
11887
11962
12004
11993
11928
11836
11552
11324
11048
10715
10333
9835
9713
9659
9762
9873
10008
10237
10482
10736
11018
11406
11504
11585
11669
11746
11822
11953
11920
11818
11734
11647
11580
11547
11504
11464
11441
11355
11280
11227
11185
11193
11187
11193
11227
11271
11296
11306
11343
11351
11368
11373
11403
11451
11504
11496
11472
11430
11386
11296
11224
11142
11091
11084
11111
11288
11425
11557
11641
11677
11622
11627
11628
11642
11593
11395
11265
11154
11091
11021
10909
10836
10801
10729
10638
10557
10487
10518
10584
10701
10864
11050
11380
11487
11554
11604
11608
11514
11478
11455
11478
11511
11590
11604
11598
11571
11551
11533
11506
11493
11475
11468
11439
11378
11304
11235
11194
11223
11279
11399
11440
11449
11478
11515
11566
11582
11610
11628
11638
11659
11665
11644
11589
11503
11389
11187
11037
10855
10688
10534
10275
10184
10151
10194
10285
10424
10648
10733
10825
10949
11059
11301
11416
11510
11564
11562
11553
11592
11610
11624
11641
11641
11661
11692
11707
11736
11776
11840
11848
11853
11855
11845
11805
11716
11649
11546
11430
11295
11002
10854
10730
10633
10577
10559
10534
10569
10666
10821
11024
11460
11652
11788
11836
11801
11554
11404
11284
11228
11209
11203
11313
11386
11379
11305
11238
11204
11177
11131
11064
10996
10946
10989
11085
11191
11294
11370
11503
11541
11569
11642
11695
11714
11702
11706
11708
11677
11623
11531
11433
11373
11339
11304
11119
11002
10880
10756
10630
10559
10720
10913
11119
11268
11335
11395
11450
11536
11621
11673
11726
11663
11562
11417
11225
11014
10604
10587
10696
10826
10873
10840
10840
10862
10925
11014
11104
11291
11448
11616
11727
11781
11744
11735
11756
11748
11668
11526
11303
11315
11394
11469
11508
11513
11525
11510
11434
11343
11235
10940
10810
10728
10725
10800
10999
11071
11144
11221
11291
11362
11357
11378
11450
11527
11571
11584
11573
11581
11603
11668
11664
11613
11506
11420
11343
11277
11084
11023
11031
11065
11098
11090
11054
10994
10925
10875
10919
11017
11146
11274
11365
11432
11407
11320
11289
11286
11309
11362
11400
11433
11469
11485
11498
11547
11620
11728
11837
11900
11817
11728
11670
11574
11451
11289
11187
11081
10948
10809
10645
10382
10359
10402
10459
10576
10855
10946
10945
10898
10888
10970
11206
11305
11403
11507
11587
11661
11665
11641
11623
11643
11668
11646
11636
11630
11647
11686
11698
11619
11507
11379
11250
11002
10892
10889
10963
11057
11134
11281
11326
11303
11251
11182
11093
11135
11196
11203
11174
11157
11187
11258
11316
11380
11439
11496
11469
11431
11382
11317
11158
11155
11189
11230
11248
11260
11356
11422
11447
11424
11396
11290
11193
11116
11095
11084
11061
11020
11057
11117
11155
11178
11171
11146
11140
11133
11138
11149
11166
11186
11231
11237
11246
11292
11336
11360
11372
11356
11375
11346
11296
11251
11247
11270
11256
11239
11203
11159
11121
10956
10900
10847
10791
10777
10819
10881
10886
10901
10915
10901
10815
10814
10852
10928
11008
11153
11122
11023
10924
10840
10816
10788
10810
10870
10975
11127
11346
11363
11355
11335
11286
11220
11187
11152
11073
10971
10893
10661
10593
10600
10650
10714
10758
10915
11007
11073
11108
11117
11046
10992
10919
10829
10779
10652
10507
10392
10321
10343
10449
10836
11050
11194
11290
11306
11227
11217
11224
11236
11237
11227
11193
11157
11069
10965
10894
10844
10854
10870
10883
10886
10969
11010
11015
11015
11013
11023
10944
10877
10854
10841
10827
10873
10888
10884
10853
10819
10795
10734
10697
10678
10636
10573
10367
10298
10300
10336
10391
10587
10742
10895
11014
11115
11192
11333
11395
11420
11407
11361
11245
11192
11145
11092
11034
11003
11048
11087
11079
11033
10970
10899
10938
10991
11022
11039
11035
11038
11030
11017
11023
11024
10974
10950
10938
10909
10886
10918
10918
10898
10842
10809
10770
10691
10682
10751
10895
11061
11237
11195
11085
10971
10848
10712
10640
10693
10762
10838
10878
10908
10931
10962
11024
11099
11194
11206
11210
11162
11080
10972
10790
10731
10700
10708
10692
10657
10653
10730
10870
10998
11040
11065
11124
11126
11075
10995
10937
10959
11019
11113
11241
11474
11541
11545
11499
11405
11316
11201
11149
11129
11084
11020
10805
10724
10669
10650
10671
10715
10797
10818
10840
10877
10929
11032
11089
11140
11179
11205
11236
11153
11066
11014
10987
10994
11088
11141
11152
11150
11143
11142
11104
11088
11102
11121
11102
11016
10990
10965
10950
10928
10902
10966
11090
11182
11242
11253
11250
11229
11219
11184
11162
11124
11128
11137
11096
11030
11004
11021
11044
11042
11002
10918
10769
10734
10691
10650
10638
10794
10898
11007
11098
11177
11224
11469
11686
11880
11978
12012
11873
11707
11513
11351
11188
10979
10666
10534
10412
10398
10493
10619
10650
10741
10872
11028
11166
10989
10753
10562
10492
10518
10599
10702
10853
10971
11088
11338
11484
11601
11731
11838
11908
11876
11840
11765
11658
11528
11228
11041
10890
10771
10674
10496
10424
10442
10503
10601
10693
10866
10927
10975
11007
11038
11078
11056
11020
10976
10904
10818
10753
10774
10812
10865
10939
11026
11088
11166
11268
11346
11415
11490
11506
11497
11461
11425
11330
11308
11283
11271
11257
11168
11119
11085
11038
11059
11118
11011
10812
10599
10428
10379
10370
10419
10519
10626
10705
10789
10962
11020
11097
11163
11208
11276
11338
11433
11573
11733
11878
11784
11628
11440
11259
11124
10984
10950
10897
10838
10786
10789
10772
10793
10863
10929
10991
11110
11064
10915
10736
10525
10239
10257
10354
10512
10709
11053
11167
11266
11336
11396
11444
11540
11500
11443
11413
11401
11344
11337
11270
11139
11015
10951
10936
10932
10915
10852
10751
10728
10779
10811
10867
10915
10990
11145
11166
11139
11108
11061
11013
10952
10823
10673
10583
10466
10435
10500
10656
10826
10970
11123
11081
11018
10974
10954
10877
10939
11051
11154
11244
11320
11281
11243
11206
11171
11173
11101
11043
10986
10951
10919
10874
10898
10974
11058
11154
11222
11284
11233
11148
11010
10867
10527
10344
10213
10101
9991
9906
9820
9810
9910
10048
10422
10643
10857
11079
11316
11540
11910
12010
12095
12127
12090
11845
11683
11509
11336
11165
10999
10664
10511
10436
10382
10309
10245
10280
10331
10408
10483
10737
10885
10994
11074
11137
11176
11133
11069
10939
10779
10650
10528
10449
10364
10296
10263
10233
10244
10316
10418
10577
10734
11080
11265
11465
11578
11595
11544
11512
11413
11322
11325
11340
11258
11206
11149
11052
10969
10962
10982
10970
10920
10882
10821
10719
10671
10643
10635
10638
10517
10382
10297
10251
10250
10391
10456
10545
10665
10786
10893
11021
11072
11110
11096
11035
10978
11003
10995
10955
10903
10852
10773
10745
10722
10717
10710
10729
10666
10560
10458
10413
10486
10728
10800
10883
11029
11206
11417
11508
11623
11706
11759
11719
11620
11511
11378
11216
11037
10773
10699
10694
10692
10675
10615
10629
10693
10769
10814
10796
10693
10701
10723
10716
10680
10667
10696
10713
10696
10637
10587
10582
10645
10728
10803
10866
10822
10820
10863
10870
10855
10875
10862
10878
10822
10722
10659
10779
10834
10858
10905
10961
11061
11084
11113
11078
11027
10975
10994
11107
11171
11165
11100
10858
10677
10558
10500
10501
10619
10687
10768
10830
10892
10963
10996
10891
10782
10651
10570
10671
10812
10968
11113
11211
11263
11445
11480
11461
11424
11403
11277
11267
11300
11282
11209
11103
11073
11040
10950
10794
10611
10284
10200
10153
10113
10131
10282
10365
10455
10555
10670
10826
11087
11167
11198
11170
11118
11008
10974
10951
10959
10974
11075
11081
11076
11068
11005
10907
10536
10327
10230
10296
10401
10469
10476
10494
10550
10606
10674
10879
11009
11132
11231
11305
11474
11569
11640
11712
11715
11676
11522
11400
11252
11103
10968
10495
10255
10094
9972
9953
10121
10296
10581
10702
10812
10918
11041
11157
11307
11354
11397
11405
11362
11242
11162
11107
11079
11066
11079
11073
11043
11020
11032
11016
10851
10763
10697
10662
10663
10660
10651
10662
10637
10645
10655
10614
10606
10634
10633
10578
10569
10629
10677
10708
10743
10791
10906
10998
11090
11176
11242
11227
11205
11177
11194
11201
11187
11158
11110
11030
10949
10861
10556
10467
10437
10368
10278
10116
9987
9891
9944
10121
10324
10552
10840
11445
11693
11909
12142
12292
12337
12151
12023
11864
11680
11518
11035
10800
10649
10557
10452
10387
10278
10221
10211
10243
10312
10478
10606
10725
10774
10766
10576
10418
10362
10397
10456
10519
10763
10887
11021
11193
11360
11541
11584
11634
11642
11582
11503
11446
11437
11457
11479
11496
11394
11281
11160
11033
10930
10821
10625
10598
10598
10603
10604
10593
10541
10428
10263
10078
9861
9890
9905
9924
9991
10075
10143
10219
10333
10483
10912
11175
11435
11666
11868
