emg_value
17
19
19
11
-12
-48
-74
-83
-83
-87
-96
-100
-97
-93
-85
-71
-58
-47
-37
-22
-3
14
28
40
51
57
61
67
73
75
74
72
66
58
46
35
22
4
-18
-39
-51
-52
-46
-41
-36
-30
-25
-27
-30
-30
-29
-27
-22
-14
0
15
23
22
21
21
22
21
24
32
43
50
50
44
35
24
14
7
0
-6
-9
-10
-8
2
20
39
53
59
63
67
72
79
89
92
77
42
-1
-38
-58
-67
-76
-92
-103
-106
-105
-100
-84
-65
-53
-47
-35
-19
-7
-4
0
13
26
26
14
-1
-19
-35
-38
-30
-27
-31
-37
-50
-66
-74
-64
-44
-27
-11
7
35
73
105
118
112
94
72
54
44
33
11
-18
-41
-49
-53
-52
-49
-46
-46
-51
-57
-59
-49
-31
-16
-3
11
25
34
45
54
57
53
49
47
46
52
59
60
57
55
55
53
47
40
32
20
6
-4
-6
1
6
7
2
-6
-20
-33
-38
-36
-33
-25
-10
2
5
-1
-13
-24
-32
-39
-43
-40
-29
-20
-14
-15
-16
-12
-4
0
-3
-8
-14
-18
-18
-14
-9
-2
3
9
20
37
52
57
55
53
48
40
31
28
30
25
7
-10
-17
-18
-26
-45
-64
-77
-84
-87
-87
-80
-67
-53
-33
-1
27
37
30
21
16
16
22
30
34
35
32
22
7
-7
-20
-26
-26
-22
-20
-18
-14
0
17
30
42
51
53
49
43
39
37
37
41
54
65
63
52
37
16
-11
-34
-42
-42
-38
-33
-29
-33
-41
-52
-64
-70
-68
-62
-56
-53
-50
-44
-35
-27
-21
-14
-5
-3
-3
1
8
14
18
24
33
42
50
56
60
62
60
53
42
34
31
27
18
6
-14
-54
-89
-94
-77
-53
-30
-9
7
17
22
23
23
20
14
13
21
32
41
42
36
25
14
8
5
0
-12
-22
-24
-22
-20
-19
-15
-8
4
25
44
48
42
41
50
62
67
67
66
59
42
22
3
-15
-35
-52
-62
-67
-70
-72
-76
-80
-81
-76
-62
-42
-22
-12
-11
-14
-13
-4
3
5
3
5
10
16
20
23
27
33
39
41
36
27
21
18
16
17
26
42
59
67
53
16
-20
-41
-54
-67
-84
-96
-97
-94
-90
-88
-86
-81
-73
-60
-45
-32
-19
-3
16
41
66
84
94
98
98
90
77
66
58
48
34
20
8
2
0
1
1
0
-4
-4
0
4
1
-4
-10
-15
-18
-19
-5
23
46
50
42
24
-2
-24
-32
-35
-41
-47
-44
-27
-2
15
16
2
-17
-35
-51
-72
-85
-84
-77
-71
-68
-61
-46
-29
-16
-12
-14
-16
-10
7
24
36
47
61
74
81
81
76
69
67
72
77
75
70
64
60
58
56
58
64
68
67
61
42
11
-14
-27
-36
-50
-68
-80
-80
-76
-73
-73
-76
-74
-66
-54
-46
-42
-39
-37
-39
-43
-45
-41
-36
-31
-22
-10
2
13
27
44
60
70
74
72
62
45
28
14
3
-3
-2
4
9
9
6
2
0
-1
-10
-29
-46
-55
-61
-66
-67
-62
-52
-42
-35
-28
-16
-1
12
27
49
72
93
110
116
116
117
113
100
78
53
33
18
2
-17
-41
-63
-79
-91
-100
-107
-108
-101
-92
-77
-59
-42
-24
-3
20
42
52
51
53
68
87
90
76
54
25
-10
-35
-46
-53
-65
-79
-88
-88
-83
-70
-53
-35
-18
-5
4
17
37
55
63
60
56
55
55
54
52
47
40
34
33
33
33
32
35
42
45
39
27
15
5
-6
-17
-22
-26
-35
-49
-62
-70
-71
-71
-73
-76
-72
-60
-47
-37
-23
-9
0
1
3
10
19
22
21
17
13
15
26
42
59
80
94
92
79
55
23
-4
-22
-36
-47
-59
-66
-65
-63
-68
-73
-67
-48
-28
-6
20
43
54
55
50
43
41
50
60
67
67
59
48
37
22
-2
-28
-49
-67
-86
-104
-112
-109
-97
-77
-55
-37
-21
-4
11
21
28
34
39
46
58
68
72
73
72
67
60
50
38
23
5
-6
-10
-14
-23
-27
-18
-4
5
8
-2
-20
-35
-47
-56
-63
-62
-53
-42
-32
-23
-15
-10
-7
-4
1
9
15
20
26
31
32
30
26
24
23
22
20
18
19
20
19
18
22
37
52
50
35
17
0
-17
-34
-48
-57
-60
-56
-51
-51
-57
-59
-52
-35
-13
5
18
24
26
23
20
23
27
28
25
16
7
6
11
16
9
-5
-15
-16
-6
15
45
60
48
24
-7
-48
-78
-83
-76
-66
-55
-46
-39
-33
-17
15
49
66
69
67
65
60
50
37
23
9
-2
-10
-18
-21
-15
-7
-3
-3
-5
-5
1
19
46
66
63
45
28
14
-4
-28
-48
-59
-68
-77
-85
-88
-81
-65
-52
-42
-32
-21
-10
0
9
18
31
42
52
62
67
69
79
96
103
91
66
39
17
-3
-24
-43
-61
-78
-93
-95
-84
-74
-71
-71
-65
-49
-30
-10
8
23
34
44
57
72
83
84
79
73
68
61
50
38
27
15
5
-2
-13
-34
-61
-72
-60
-39
-16
2
12
8
-3
-18
-31
-38
-38
-33
-21
-1
12
15
13
14
17
14
6
0
3
10
5
-16
-46
-74
-97
-107
-102
-89
-70
-46
-20
4
29
57
88
107
111
107
98
88
75
60
45
27
4
-14
-27
-36
-44
-49
-48
-41
-34
-24
-9
9
26
40
48
55
59
59
54
41
23
5
-6
-18
-32
-44
-48
-39
-20
9
39
46
31
11
-13
-45
-71
-83
-85
-88
-95
-97
-87
-64
-32
-6
6
13
20
29
35
34
30
26
23
26
30
31
38
53
61
54
41
28
19
12
3
-4
-10
-20
-29
-33
-31
-27
-25
-22
-17
-11
-3
6
12
10
0
-10
-11
5
33
61
74
63
40
20
4
-8
-19
-29
-41
-52
-59
-61
-56
-40
-15
12
36
55
70
76
72
62
46
22
-4
-29
-50
-63
-67
-64
-55
-42
-27
-7
15
34
41
39
36
29
13
-3
-12
-16
-23
-27
-27
-34
-51
-72
-90
-99
-92
-70
-46
-23
3
28
45
58
78
108
128
125
105
78
55
39
32
29
22
10
0
-5
-8
-8
-10
-18
-29
-35
-32
-25
-22
-23
-22
-17
-11
-9
-9
-9
-4
9
20
20
12
2
-3
-5
-7
-8
-11
-18
-22
-18
-15
-22
-37
-46
-46
-36
-19
-4
-2
-13
-29
-42
-46
-38
-19
-1
4
-1
-4
5
25
52
76
84
76
65
54
46
44
48
52
45
20
-17
-47
-57
-59
-72
-90
-95
-85
-66
-37
-5
21
47
81
119
146
154
149
125
78
26
-20
-62
-97
-118
-113
-88
-54
-20
10
27
30
25
19
15
13
7
-11
-46
-85
-101
-88
-64
-48
-38
-32
-23
-7
9
17
16
15
19
20
21
36
64
87
92
81
60
42
31
27
24
13
-6
-21
-20
-10
-4
-3
-8
-23
-46
-66
-76
-83
-88
-89
-80
-60
-36
-4
35
67
82
80
64
41
19
4
1
17
43
58
50
28
0
-21
-26
-19
-13
-17
-30
-38
-34
-28
-34
-51
-58
-52
-39
-17
10
34
51
67
84
97
100
92
78
58
32
2
-26
-54
-75
-77
-65
-50
-37
-34
-50
-78
-97
-100
-99
-101
-96
-69
-17
68
172
241
254
237
203
146
74
4
-52
-98
-125
-127
-117
-106
-94
-72
-39
-7
6
2
-2
5
22
34
43
55
62
58
45
28
13
6
9
20
23
11
-4
-15
-29
-60
-105
-140
-147
-132
-99
-48
1
36
60
69
57
38
25
22
33
48
49
34
17
3
-6
2
38
86
115
112
87
52
16
-27
-77
-113
-127
-137
-151
-154
-125
-76
-30
9
45
67
80
94
109
119
121
111
89
56
14
-19
-38
-47
-59
-76
-79
-58
-21
16
33
30
23
15
-3
-32
-60
-71
-43
15
58
59
36
0
-41
-78
-109
-137
-150
-133
-98
-65
-33
18
92
145
152
139
118
85
56
49
56
60
59
68
87
101
85
42
-2
-38
-68
-84
-77
-55
-40
-35
-19
13
38
35
6
-44
-108
-157
-184
-200
-202
-177
-126
-64
0
82
166
203
188
155
118
75
35
7
-7
-1
28
54
54
37
9
-25
-54
-69
-70
-53
-28
-5
10
20
36
66
89
88
65
32
5
1
14
19
10
-4
-19
-38
-57
-78
-105
-125
-132
-132
-132
-131
-115
-84
-51
-23
0
23
51
83
128
177
194
172
128
79
46
51
82
105
99
76
55
42
18
-35
-109
-166
-191
-184
-135
-59
8
53
83
95
86
64
43
23
3
-23
-57
-90
-124
-165
-189
-181
-155
-131
-114
-84
-36
11
43
70
100
119
116
99
74
49
31
19
15
33
73
110
122
112
92
59
9
-44
-87
-122
-156
-180
-182
-152
-100
-55
-25
-3
25
69
106
121
119
113
112
114
115
111
93
64
35
8
-19
-50
-71
-75
-76
-82
-84
-70
-41
-10
13
33
49
48
39
41
48
38
-1
-59
-107
-124
-108
-70
-31
-5
0
-19
-46
-56
-50
-29
-7
0
4
16
37
58
71
83
98
117
135
135
110
71
35
7
-7
-12
-11
-15
-26
-31
-20
-3
9
21
28
28
18
7
4
5
2
-6
-24
-47
-57
-51
-40
-30
-19
-10
-9
-14
-22
-24
-20
-13
2
28
44
30
-6
-54
-121
-208
-262
-251
-195
-120
-46
30
111
183
241
274
267
234
187
127
62
2
-46
-82
-109
-126
-125
-107
-75
-34
4
25
23
5
-17
-37
-64
-100
-121
-111
-93
-85
-77
-54
-14
23
45
54
68
105
147
171
176
159
119
68
26
3
-11
-27
-35
-28
-17
-13
-14
-13
-9
-8
-22
-50
-76
-87
-88
-83
-68
-43
-15
6
19
26
35
46
56
62
56
37
12
-7
-21
-34
-44
-47
-41
-29
-20
-11
8
39
64
79
87
102
133
-34
-34
-34
-30
-22
-15
-14
-16
-15
-8
3
18
29
31
30
30
31
30
26
22
22
22
17
9
3
-1
-9
-21
-31
-35
-37
-40
-39
-33
-31
-29
-20
-7
2
5
7
15
25
31
29
19
8
4
3
0
-7
-14
-18
-19
-24
-35
-48
-54
-51
-45
-39
-33
-26
-17
-10
-2
10
26
40
49
51
49
43
37
36
40
44
41
30
19
9
-3
-16
-23
-28
-33
-37
-38
-36
-32
-22
-9
1
6
7
12
22
35
46
51
53
54
53
47
34
19
9
4
-3
-11
-18
-23
-26
-28
-29
-32
-33
-27
-11
11
32
43
45
45
39
24
8
-1
-7
-12
-24
-39
-48
-51
-54
-62
-71
-74
-74
-73
-71
-66
-60
-51
-37
-19
0
15
29
44
67
92
108
114
109
98
86
77
70
62
54
43
30
15
-1
-25
-49
-66
-77
-90
-104
-108
-104
-99
-93
-85
-73
-57
-42
-26
-8
9
27
42
54
64
74
83
93
98
95
85
73
62
51
32
9
-8
-18
-31
-47
-56
-59
-60
-51
-31
-13
-6
-5
-1
7
16
24
29
37
52
64
68
62
46
20
-8
-32
-51
-67
-81
-90
-92
-94
-93
-91
-89
-81
-68
-55
-42
-26
-4
17
35
52
64
71
73
73
71
67
62
58
53
46
36
31
32
38
44
48
48
46
43
39
35
33
33
34
30
17
1
-15
-34
-49
-57
-56
-56
-62
-69
-73
-75
-80
-83
-80
-71
-61
-52
-41
-26
-10
5
16
22
24
24
20
13
4
0
4
10
15
16
15
16
20
18
9
-1
-5
-2
0
1
3
6
10
12
11
9
11
20
30
31
22
13
9
13
27
43
57
68
73
67
53
31
7
-18
-45
-66
-78
-85
-97
-114
-121
-116
-105
-93
-80
-66
-51
-38
-29
-18
-4
10
28
55
90
115
122
122
116
99
78
61
48
41
37
33
31
31
28
21
17
19
31
43
42
25
4
-14
-32
-50
-63
-72
-78
-83
-87
-90
-92
-92
-84
-66
-47
-30
-15
6
36
57
60
56
56
61
60
49
30
10
-5
-16
-25
-33
-43
-52
-56
-51
-44
-43
-47
-44
-32
-11
15
34
43
50
56
64
69
68
67
62
48
27
7
-7
-21
-35
-43
-48
-51
-48
-39
-34
-30
-25
-15
0
15
27
34
40
49
59
65
61
49
37
27
17
6
-6
-19
-29
-39
-51
-64
-78
-85
-81
-71
-57
-40
-23
-5
13
40
71
92
98
91
79
61
42
29
18
0
-28
-48
-58
-66
-72
-71
-62
-49
-39
-32
-27
-23
-11
6
22
34
43
51
55
57
61
63
61
52
39
24
8
-6
-19
-33
-45
-52
-51
-47
-44
-44
-38
-22
0
29
62
78
75
64
51
37
24
12
1
-12
-33
-51
-58
-63
-75
-88
-90
-85
-77
-70
-64
-56
-45
-31
-15
0
10
20
30
41
50
55
57
55
54
56
57
59
71
97
114
112
99
80
54
26
6
-6
-20
-41
-57
-65
-72
-83
-92
-94
-88
-76
-53
-20
10
31
45
54
60
63
66
66
63
59
53
44
31
13
-12
-38
-57
-69
-81
-99
-115
-120
-117
-109
-98
-83
-67
-54
-40
-24
-11
-3
5
20
38
55
69
83
98
106
103
92
80
73
68
60
48
34
21
10
3
2
4
6
3
-6
-18
-24
-23
-14
-3
0
-8
-27
-48
-62
-70
-80
-91
-98
-98
-89
-78
-69
-62
-49
-30
-11
8
30
49
65
79
98
118
129
126
118
108
94
80
71
60
44
24
4
-10
-22
-35
-47
-57
-62
-63
-65
-68
-68
-64
-58
-52
-46
-37
-27
-17
-8
4
17
26
32
33
34
41
49
53
46
27
7
-5
-15
-26
-34
-32
-24
-19
-24
-34
-40
-39
-38
-38
-40
-40
-32
-17
-6
-4
-7
-8
-6
-1
6
10
7
7
16
30
38
43
53
70
92
108
106
88
63
32
7
-5
-12
-19
-33
-52
-69
-83
-96
-109
-114
-106
-91
-73
-54
-34
-17
-3
10
24
36
47
58
71
83
88
89
90
89
82
72
62
47
26
11
4
0
-8
-17
-22
-23
-21
-22
-30
-42
-46
-35
-16
1
14
20
24
29
33
31
22
8
-3
-12
-22
-39
-60
-79
-100
-126
-141
-141
-132
-119
-99
-77
-56
-32
-4
18
39
69
109
152
180
179
158
127
89
54
27
2
-22
-48
-64
-67
-62
-49
-35
-29
-29
-24
-15
-9
-6
-2
5
14
25
43
63
77
83
80
66
47
29
13
-5
-25
-40
-47
-49
-50
-51
-51
-49
-45
-36
-26
-20
-14
-3
19
47
64
68
71
73
69
55
37
18
0
-20
-37
-50
-58
-59
-57
-54
-49
-43
-39
-39
-35
-26
-18
-15
-16
-17
-16
-12
-7
3
14
20
22
19
10
0
-1
0
0
-2
0
5
11
14
17
21
25
31
36
34
25
15
7
0
-4
-4
5
19
32
42
45
43
38
30
13
-8
-30
-46
-59
-67
-69
-64
-58
-52
-44
-36
-30
-27
-21
-8
6
19
27
34
44
57
69
82
94
105
109
102
82
46
0
-40
-68
-88
-101
-101
-89
-74
-63
-61
-64
-64
-58
-52
-47
-43
-34
-19
-3
14
35
50
56
60
67
77
81
76
68
57
43
31
29
35
49
60
51
24
-3
-27
-47
-60
-69
-76
-80
-77
-69
-54
-39
-25
-8
13
36
55
57
47
34
23
18
16
8
-3
-14
-21
-28
-37
-42
-45
-46
-47
-44
-40
-38
-35
-31
-24
-15
-2
14
32
48
57
58
55
46
32
18
8
5
11
26
34
31
25
19
11
1
-7
-9
-9
-12
-16
-18
-17
-10
0
8
12
13
12
8
4
8
19
23
12
-3
-17
-28
-36
-38
-35
-32
-33
-40
-44
-41
-34
-25
-17
-8
2
13
21
31
44
57
61
58
52
41
22
3
-9
-20
-30
-30
-16
4
18
16
6
2
2
-4
-21
-38
-48
-51
-53
-55
-56
-54
-47
-36
-23
-7
8
22
33
40
39
33
26
22
24
31
37
39
40
41
39
34
26
16
8
16
36
52
52
40
21
0
-20
-40
-56
-66
-67
-61
-56
-54
-50
-39
-27
-15
-6
2
11
20
28
35
37
36
36
35
30
22
14
12
9
3
-1
-4
-5
-3
0
-5
-16
-26
-33
-38
-41
-41
-38
-34
-31
-26
-18
-11
-2
11
24
27
23
19
17
14
9
3
-2
-7
-9
-7
-7
-4
6
17
23
25
25
24
21
15
8
6
8
11
11
11
8
0
-9
-15
-16
-16
-14
-14
-14
-10
0
7
3
-8
-16
-20
-17
-6
6
18
21
14
3
-5
-13
-11
0
6
4
1
0
0
0
0
1
6
17
28
35
35
33
36
42
43
38
29
16
6
0
-7
-16
-22
-20
-13
-8
-10
-16
-24
-28
-34
-48
-71
-90
-95
-89
-82
-81
-77
-62
-39
-15
0
4
7
10
10
10
11
16
25
36
47
55
62
70
75
71
53
28
4
-14
-29
-42
-52
-59
-57
-42
-24
-10
-2
10
32
55
70
76
76
75
70
59
47
40
38
37
33
28
17
1
-10
-15
-19
-28
-40
-46
-42
-36
-33
-31
-29
-26
-22
-21
-23
-18
-8
-1
0
-4
-6
-3
0
-3
-9
-13
-11
-6
-2
-1
0
6
21
35
34
14
-9
-21
-27
-30
-28
-22
-18
-5
22
50
58
46
17
-18
-44
-55
-59
-63
-61
-50
-32
-19
-10
0
8
14
18
21
20
19
22
31
44
53
58
61
62
57
49
41
33
24
11
0
-2
3
9
8
-1
-14
-22
-25
-18
-7
0
8
11
4
-3
-11
-21
-30
-34
-33
-30
-29
-28
-29
-34
-36
-30
-20
-7
5
7
-2
-14
-27
-36
-37
-32
-24
-11
1
11
23
36
51
68
80
80
68
49
31
19
8
-2
-11
-16
-21
-30
-38
-43
-49
-52
-51
-43
-25
1
24
36
36
33
33
40
55
68
70
60
46
31
19
2
-24
-50
-71
-86
-99
-112
-118
-118
-115
-100
-67
-40
-29
-19
2
27
39
43
47
54
63
66
64
61
62
64
64
63
63
62
55
42
27
13
0
-6
-2
7
10
-2
-26
-49
-64
-73
-76
-75
-69
-56
-39
-17
4
24
45
65
76
73
56
32
17
18
16
1
-11
-14
-16
-33
-62
-85
-100
-104
-98
-87
-71
-49
-15
25
48
50
39
17
-8
-26
-28
-4
38
76
84
63
28
-15
-56
-75
-70
-42
9
61
93
114
130
136
131
122
109
82
40
8
2
16
36
45
32
7
-19
-45
-61
-66
-59
-47
-47
-74
-111
-139
-152
-162
-181
-202
-214
-215
-188
-124
-56
-11
18
63
129
180
198
200
197
183
156
123
88
55
26
5
-8
-24
-40
-43
-26
6
39
64
79
85
84
78
67
55
50
47
37
18
-6
-42
-77
-104
-130
-167
-201
-190
-133
-65
-19
-3
-3
-12
-39
-82
-114
-125
-126
-117
-93
-52
4
72
158
246
281
253
207
163
125
104
96
87
64
32
4
-17
-34
-55
-81
-105
-121
-130
-130
-120
-102
-87
-83
-89
-98
-92
-59
0
69
123
139
130
112
82
36
-16
-64
-101
-133
-165
-175
-154
-114
-58
21
98
152
186
204
218
238
256
257
213
120
31
-27
-79
-152
-227
-253
-231
-202
-174
-133
-84
-45
-26
-19
-9
6
30
70
130
187
205
180
134
75
0
-72
-115
-121
-104
-86
-68
-43
-15
4
8
-2
-17
-30
-41
-46
-40
-22
1
28
51
67
77
82
90
112
137
138
107
51
-13
-69
-111
-141
-161
-179
-191
-175
-120
-42
31
80
107
120
113
84
49
23
0
-18
-22
-15
-7
-3
5
30
61
86
106
126
134
117
86
49
4
-49
-104
-151
-196
-242
-265
-245
-190
-106
-10
61
96
110
113
114
114
110
96
62
12
-24
-34
-27
-8
17
45
76
97
87
46
-3
-41
-72
-108
-143
-150
-130
-101
-57
10
76
117
138
145
138
119
94
67
34
-4
-32
-44
-52
-60
-56
-43
-39
-49
-61
-75
-96
-120
-131
-109
-58
-11
14
28
38
49
51
44
39
52
86
125
149
155
124
39
-63
-140
-180
-189
-179
-149
-99
-39
29
98
137
139
128
112
94
85
86
85
70
43
23
14
6
-13
-47
-83
-112
-133
-135
-110
-68
-20
22
54
74
66
30
-15
-61
-101
-123
-130
-131
-111
-51
28
92
123
134
146
157
149
115
59
-7
-69
-116
-149
-174
-187
-177
-129
-35
76
150
167
148
100
36
-8
-13
6
21
21
18
28
45
54
49
30
6
-19
-36
-30
-12
2
23
45
49
29
-2
-33
-52
-52
-30
9
56
106
142
124
50
-45
-148
-246
-304
-308
-279
-240
-193
-122
-26
70
145
192
203
185
158
134
122
119
111
91
67
42
15
-20
-59
-75
-53
-19
0
6
19
36
33
3
-34
-66
-91
-104
-85
-34
26
70
84
80
67
53
52
71
92
98
87
68
47
18
-23
-86
-165
-225
-251
-251
-235
-206
-168
-122
-74
-17
48
89
92
75
65
76
94
101
96
87
79
76
78
84
90
95
90
79
68
57
44
29
12
-8
-39
-88
-129
-136
-120
-98
-70
-34
3
35
60
76
76
65
54
44
33
20
5
-15
-45
-80
-107
-120
-123
-100
-47
-2
15
18
13
10
13
18
17
4
-25
-62
-89
-89
-56
-11
15
24
44
82
117
118
93
63
40
28
32
43
50
47
34
17
10
17
27
25
9
-15
-42
-75
-112
-137
-144
-145
-135
-101
-51
-3
36
67
85
81
60
33
21
39
78
114
127
105
49
-9
-50
-83
-119
-151
-164
-155
-124
-65
14
86
128
140
132
115
100
90
82
65
31
-9
-48
-84
-122
-155
-167
-158
-139
-106
-53
15
84
138
164
161
132
88
40
-10
-58
-88
-99
-103
-98
-79
-46
-12
14
37
60
72
67
61
86
145
183
162
101
17
-81
-167
-215
-235
-235
-213
-169
-108
-27
55
109
133
141
128
93
51
15
-14
-20
3
26
30
24
20
21
20
12
0
-9
-12
-9
-2
9
23
31
28
17
4
-11
-32
-58
-76
-81
-63
-8
64
122
150
137
88
28
-26
-74
-108
-127
-134
-126
-105
-65
-4
49
79
89
73
39
10
-5
-16
-32
-52
-66
-69
-57
-21
33
79
110
132
136
113
70
23
-15
-35
-26
1
25
34
33
22
-6
-48
-83
-115
-149
-164
-145
-97
-29
41
91
121
137
129
90
41
2
-25
-55
-89
-107
-100
-76
-41
0
36
59
62
46
20
-4
-18
-17
-4
7
13
17
23
27
25
23
32
44
41
24
10
3
-3
-15
-30
-33
-20
-5
1
1
-1
-8
-17
-19
-8
1
2
0
-12
-37
-62
-73
-73
-62
-40
-18
-1
13
31
50
61
63
64
61
59
61
67
69
64
50
22
-9
-34
-50
-60
-65
-66
-61
-51
-40
-32
-29
-27
-26
-28
-31
-24
-2
29
61
81
90
92
79
47
17
1
-10
-27
-46
-55
-58
-66
-71
-64
-54
-50
-53
-53
-40
-12
22
56
83
94
87
73
58
41
21
6
-2
-11
-21
-33
-43
-41
-25
-1
16
23
23
20
15
10
4
0
-2
2
13
22
25
23
18
10
2
0
-4
-10
-8
1
7
4
-9
-24
-31
-31
-31
-27
-17
-9
-4
-4
-9
-15
-18
-17
-16
-12
-5
2
7
9
5
3
5
7
6
4
0
-7
-7
2
12
16
16
19
24
24
15
2
-5
-5
-6
-15
-21
-12
10
37
50
45
34
19
1
-15
-25
-30
-33
-34
-29
-20
-12
-7
-1
5
10
12
13
9
5
4
7
9
7
4
4
6
7
6
0
-5
-7
-9
-10
-12
-12
-13
-15
-17
-18
-17
-16
-16
-12
-3
10
25
40
53
62
58
43
27
12
-2
-15
-23
-27
-30
-36
-43
-45
-40
-28
-10
2
8
9
8
10
17
21
18
10
3
-3
-11
-22
-29
-27
-20
-14
-9
-6
-3
1
4
-1
-20
-40
-47
-41
-31
-11
26
66
89
95
87
71
55
45
35
20
1
-11
-21
-30
-38
-43
-45
-42
-34
-27
-29
-34
-33
-24
-21
-31
-35
-24
-5
13
31
44
49
46
39
32
24
17
11
7
1
-5
-8
-10
-15
-24
-32
-36
-40
-43
-43
-41
-38
-31
-20
-8
4
15
21
23
24
26
28
27
20
12
8
4
0
-5
-8
-11
-12
-9
-7
-11
-16
-13
-8
-4
0
3
10
15
23
30
35
36
37
36
32
26
19
12
3
-9
-19
-24
-24
-23
-23
-25
-28
-26
-21
-16
-13
-9
-2
4
10
16
20
20
15
12
15
18
17
17
22
26
25
25
27
30
25
15
1
-10
-14
-10
-4
1
6
6
1
-5
-14
-23
-33
-41
-40
-32
-16
6
28
46
55
54
49
41
30
19
5
-12
-30
-43
-48
-50
-52
-52
-45
-35
-28
-22
-17
-12
-6
0
10
14
13
12
13
14
15
14
11
6
0
-7
-12
-18
-23
-22
-18
-17
-15
-10
-3
0
5
9
10
10
12
16
19
17
13
11
11
9
5
0
-4
-7
-7
-7
-10
-18
-21
-16
-12
-11
-9
-5
-1
3
9
12
13
17
23
28
26
20
15
12
9
6
2
-1
-5
-10
-15
-23
-32
-36
-31
-22
-16
-12
-4
8
18
24
27
28
30
31
31
28
23
16
10
7
5
4
3
0
-4
-10
-19
-31
-41
-43
-39
-36
-31
-23
-14
-8
-2
4
13
24
34
43
42
32
19
9
3
-1
-6
-9
-12
-15
-19
-25
-27
-23
-14
-2
2
0
-1
-4
-3
1
6
8
12
24
38
42
37
32
27
19
9
1
-3
-8
-17
-23
-24
-26
-22
-12
-3
-4
-10
-14
-18
-20
-18
-14
-13
-18
-20
-18
-14
-10
-7
-1
6
14
21
24
20
13
11
10
5
0
0
3
3
2
4
8
12
14
13
11
11
15
21
25
22
17
13
10
3
-3
-9
-15
-22
-28
-32
-36
-39
-34
-24
-16
-14
-11
-7
-4
0
4
11
16
20
25
27
25
23
30
39
45
43
33
17
0
-12
-24
-35
-47
-51
-47
-45
-49
-50
-45
-39
-32
-26
-21
-15
-5
9
24
33
34
33
32
29
27
25
21
14
8
3
0
-3
-1
3
6
8
11
15
15
17
22
28
26
19
12
7
0
-11
-20
-24
-27
-29
-28
-27
-26
-25
-24
-26
-27
-21
-7
1
5
9
12
13
13
14
15
15
19
28
36
37
33
28
22
14
7
1
-2
-5
-8
-11
-17
-22
-22
-16
-9
-9
-11
-10
-6
-3
1
10
18
25
29
28
24
20
14
8
1
-7
-17
-26
-37
-42
-40
-37
-38
-41
-35
-24
-17
-13
-9
-9
-12
-14
-12
-10
-6
0
6
10
12
15
17
19
19
20
22
25
29
32
28
18
11
12
14
14
16
21
24
24
21
14
3
-3
-4
-6
-13
-24
-29
-30
-31
-33
-32
-31
-29
-24
-18
-14
-14
-15
-12
-5
0
3
8
15
22
25
25
23
25
35
45
46
40
34
25
15
5
-2
-9
-20
-31
-37
-40
-44
-46
-40
-30
-22
-17
-11
-5
-2
0
4
9
14
19
23
24
19
12
10
10
8
6
7
9
12
18
23
20
8
-1
-9
-20
-31
-34
-34
-38
-47
-51
-49
-43
-31
-10
9
25
44
66
85
89
78
60
38
12
-9
-24
-36
-48
-57
-63
-68
-71
-71
-66
-55
-40
-22
-4
12
29
42
51
55
56
58
59
55
50
45
41
38
37
37
29
13
0
-8
-18
-28
-32
-29
-26
-27
-29
-30
-29
-23
-11
2
12
20
29
39
46
44
35
26
14
0
-15
-32
-48
-61
-68
-67
-61
-51
-36
-23
-18
-19
-21
-23
-24
-17
-6
2
5
5
7
7
4
1
-2
-5
-2
3
8
12
19
27
32
33
35
38
41
47
57
68
71
70
68
64
52
36
23
12
-1
-21
-39
-50
-58
-64
-71
-76
-78
-77
-74
-69
-60
-48
-35
-21
-6
7
18
25
34
48
57
55
49
42
35
26
19
16
11
2
-3
-6
-11
-16
-17
-11
-7
-11
-14
-11
-6
0
7
17
24
27
29
30
28
20
10
0
-11
-24
-35
-41
-43
-43
-43
-46
-51
-51
-43
-32
-16
3
30
62
88
98
89
64
35
4
-29
-58
-76
-88
-97
-103
-103
-95
-82
-68
-52
-38
-24
-12
2
25
50
68
79
93
108
117
115
109
100
88
77
70
64
52
33
16
3
-8
-20
-32
-41
-45
-43
-40
-43
-46
-43
-35
-24
-12
-3
1
2
3
5
7
7
10
15
15
9
2
-1
-5
-11
-18
-21
-23
-24
-28
-33
-38
-41
-37
-31
-24
-18
-10
0
13
29
45
56
55
43
29
15
2
-11
-25
-33
-36
-37
-36
-36
-34
-28
-19
-10
2
13
17
14
6
-2
-10
-15
-18
-20
-23
-23
-17
-11
-10
-14
-17
-13
-6
1
10
22
38
56
74
90
92
83
78
76
70
60
47
33
15
-7
-26
-38
-50
-61
-70
-76
-78
-79
-77
-71
-64
-55
-45
-34
-21
-7
4
11
17
26
34
39
42
46
51
53
53
52
49
44
43
48
52
51
45
40
34
27
15
-1
-16
-27
-37
-47
-57
-63
-61
-55
-51
-52
-52
-46
-38
-31
-25
-18
-8
2
15
28
35
32
22
10
-3
-14
-19
-20
-24
-28
-32
-35
-39
-38
-29
-15
-4
6
18
30
40
46
48
46
43
43
45
44
36
25
17
12
7
1
-9
-22
-28
-31
-36
-48
-54
-50
-44
-37
-27
-17
-6
4
17
33
47
58
71
83
89
87
80
69
52
25
-1
-22
-41
-63
-87
-104
-111
-110
-106
-103
-99
-90
-74
-52
-28
-5
13
29
47
69
87
94
94
90
86
80
74
68
58
43
30
23
18
8
-1
-6
-8
-13
-22
-31
-36
-38
-37
-36
-38
-40
-37
-30
-26
-25
-23
-16
-7
1
10
17
20
23
27
28
24
20
17
10
-3
-18
-30
-37
-43
-52
-56
-51
-44
-35
-24
-17
-12
-7
3
18
29
32
32
30
27
25
23
17
10
6
5
7
9
8
6
3
0
-1
0
0
2
7
11
10
6
3
3
2
1
-1
-3
-4
-2
0
2
7
16
26
31
33
34
36
35
30
25
19
12
7
3
0
-8
-15
-21
-26
-32
-36
-37
-37
-42
-50
-58
-64
-69
-65
-52
-41
-35
-30
-23
-15
-5
6
18
38
63
79
82
76
70
72
73
65
51
34
13
-7
-21
-30
-40
-53
-62
-65
-66
-65
-60
-47
-32
-21
-2
31
61
80
97
121
142
140
113
77
39
-3
-37
-59
-73
-86
-102
-116
-125
-127
-122
-117
-106
-90
-68
-40
-11
11
26
35
44
54
59
59
61
64
67
63
54
42
33
32
38
39
29
11
-7
-21
-29
-35
-39
-41
-41
-36
-27
-19
-13
-6
4
17
29
39
43
42
35
21
2
-11
-19
-26
-33
-39
-39
-27
0
33
64
79
73
56
32
5
-14
-25
-27
-20
-10
-11
-24
-41
-59
-80
-90
-80
-67
-69
-79
-84
-81
-77
-64
-41
-17
0
12
29
56
80
88
85
75
65
61
66
71
73
70
67
61
52
44
39
35
31
26
17
4
-1
4
14
20
23
29
46
68
87
96
90
77
63
48
29
7
-14
-33
-52
-74
-92
-100
-105
-110
-117
-123
-125
-121
-112
-98
-85
-74
-64
-42
-6
25
42
45
42
38
34
30
22
10
-3
-15
-22
-28
-34
-43
-49
-47
-43
-39
-34
-24
-10
7
31
51
62
69
76
82
86
87
91
98
101
89
66
42
20
-4
-34
-59
-74
-81
-84
-84
-84
-85
-82
-67
-39
-11
4
14
22
26
27
24
21
17
14
7
-4
-17
-29
-37
-38
-31
-17
-1
13
26
31
31
32
36
38
37
32
25
17
11
10
11
11
7
4
5
6
4
-1
-4
-3
-2
-2
-2
-2
0
2
3
-1
-8
-9
-4
1
8
15
22
28
28
24
20
16
15
18
25
30
31
28
15
-8
-28
-37
-42
-49
-56
-59
-59
-61
-64
-67
-67
-63
-57
-47
-39
-33
-26
-16
-3
12
31
48
58
57
55
53
52
56
63
68
65
56
44
30
13
1
-3
-12
-27
-44
-53
-57
-60
-63
-63
-59
-51
-40
-31
-26
-24
-18
-7
8
24
39
49
51
50
49
45
35
25
18
10
2
0
0
1
4
12
22
27
28
32
39
44
48
50
50
42
27
10
-7
-29
-47
-58
-65
-76
-90
-94
-91
-85
-77
-65
-49
-30
-10
9
30
45
54
58
60
58
54
48
44
41
35
20
1
-17
-38
-61
-80
-88
-84
-72
-47
-12
24
54
72
80
81
75
64
47
27
8
-7
-21
-35
-49
-60
-65
-67
-72
-81
-87
-85
-78
-62
-31
0
23
45
72
105
130
140
140
131
117
103
94
82
59
29
0
-23
-37
-54
-76
-92
-96
-96
-95
-92
-82
-60
-35
-11
11
29
38
39
36
31
25
25
29
35
39
37
26
14
0
-15
-29
-38
-46
-55
-66
-73
-75
-74
-67
-56
-46
-36
-24
-11
2
14
25
36
45
53
62
70
74
71
64
57
51
43
33
20
11
11
12
3
-15
-29
-34
-36
-38
-37
-35
-33
-30
-28
-32
-39
-38
-28
-13
4
21
37
51
63
73
81
80
68
46
17
-10
-31
-46
-57
-66
-71
-73
-73
-73
-77
-76
-67
-58
-46
-27
-3
14
26
37
52
64
69
69
66
58
50
43
34
24
14
7
1
-3
-4
2
10
14
16
17
18
18
21
23
21
13
3
-5
-12
-22
-37
-51
-58
-58
-57
-61
-65
-62
-51
-32
-11
10
32
51
63
67
64
56
46
38
33
29
28
36
46
47
34
15
-2
-23
-53
-81
-101
-118
-131
-138
-135
-124
-111
-94
-70
-46
-25
-2
25
54
73
82
84
83
82
82
81
77
73
70
65
58
51
45
41
37
33
23
10
-4
-13
-14
-7
9
39
66
75
63
40
14
-6
-17
-24
-33
-49
-66
-81
-96
-114
-131
-142
-145
-143
-131
-108
-82
-59
-35
-9
15
41
70
100
120
124
117
104
84
63
49
39
28
12
-6
-22
-28
-30
-32
-34
-33
-26
-11
8
32
54
64
60
50
38
24
12
6
2
-4
-14
-22
-25
-24
-24
-25
-30
-38
-45
-47
-43
-40
-37
-34
-30
-25
-19
-13
-9
-5
5
20
33
45
60
76
80
70
55
42
33
23
10
-5
-22
-40
-54
-62
-68
-77
-83
-77
-63
-43
-21
-2
5
7
11
17
24
31
38
44
48
49
47
43
34
31
36
34
24
13
2
-13
-27
-33
-35
-34
-27
-16
-4
2
3
0
0
3
9
15
18
15
6
-1
-9
-19
-28
-31
-28
-23
-19
-20
-23
-25
-23
-19
-12
-6
1
13
23
30
37
42
41
36
34
34
32
25
12
0
-6
-12
-17
-25
-32
-33
-28
-24
-24
-21
-16
-6
7
16
20
20
17
13
7
3
6
21
45
58
56
50
43
32
15
0
-9
-19
-30
-43
-55
-64
-71
-76
-84
-88
-89
-84
-70
-48
-25
-8
4
18
29
35
37
39
43
47
52
53
50
44
34
28
32
42
49
45
32
17
6
0
-10
-16
-16
-13
-12
-15
-19
-18
-11
-8
-15
-26
-33
-41
-49
-50
-41
-29
-13
8
27
36
43
50
50
40
24
11
1
-2
-2
-4
-9
-11
-7
-1
0
-5
-11
-9
-1
12
29
50
73
88
80
50
6
-37
-63
-71
-74
-73
-71
-63
-54
-46
-40
-36
-36
-34
-30
-26
-18
-3
14
30
42
53
57
54
48
44
39
26
9
-3
-13
-23
-28
-24
-14
-5
2
7
12
18
27
34
37
36
32
29
29
29
28
25
15
0
-15
-27
-38
-47
-53
-56
-57
-54
-46
-34
-23
-14
-3
9
25
38
48
51
47
42
36
31
24
15
3
-9
-19
-25
-30
-36
-42
-42
-38
-29
-18
-8
-2
-3
-4
4
21
38
53
63
63
52
35
19
4
-13
-28
-36
-42
-54
-70
-80
-87
-92
-90
-82
-71
-59
-46
-30
-10
6
22
35
50
70
87
95
96
97
98
93
83
70
54
38
28
27
28
26
20
17
16
9
-6
-24
-38
-46
-53
-61
-70
-76
-76
-72
-65
-54
-33
-4
22
36
35
28
19
7
-1
-4
-4
2
21
53
81
79
50
17
-14
-50
-78
-92
-97
-98
-94
-85
-74
-61
-42
-23
-9
1
13
20
25
33
50
72
91
100
95
79
57
30
1
-20
-32
-37
-40
-41
-37
-26
-12
0
10
17
28
43
64
89
101
96
83
64
36
4
-21
-41
-62
-86
-104
-105
-96
-83
-67
-49
-34
-20
-3
16
32
42
54
68
81
82
72
56
39
22
11
3
-5
-15
-26
-38
-49
-59
-68
-75
-75
-68
-57
-45
-29
-11
5
17
22
23
21
18
14
12
10
8
7
9
10
10
9
9
11
13
16
22
29
32
34
39
42
44
47
46
30
4
-16
-29
-45
-68
-84
-84
-77
-70
-60
-50
-43
-37
-25
-6
12
22
29
38
48
56
59
57
49
40
32
25
15
2
-11
-23
-30
-33
-34
-34
-29
-21
-15
-15
-13
-2
13
33
60
78
79
69
54
38
18
0
-12
-20
-33
-49
-61
-64
-61
-55
-50
-44
-37
-29
-20
-14
-11
-7
-3
3
14
26
36
45
53
53
46
38
33
31
32
33
29
27
36
47
46
33
13
-11
-32
-42
-46
-54
-67
-74
-71
-65
-60
-54
-42
-29
-19
-11
-2
6
15
23
34
45
53
58
59
57
49
37
24
9
-10
-32
-49
-55
-55
-51
-41
-30
-22
-14
-4
6
13
15
14
11
8
3
-1
-7
-10
-5
2
11
19
28
37
39
34
21
1
-20
-33
-34
-34
-31
-23
-14
-5
3
13
24
33
40
44
42
38
36
37
33
25
17
12
10
10
1
-18
-39
-51
-57
-61
-64
-63
-59
-54
-46
-35
-22
-9
2
16
31
39
38
35
32
30
26
22
16
9
0
0
23
63
97
106
87
53
20
-10
-42
-71
-91
-103
-113
-120
-118
-108
-93
-77
-55
-30
-5
19
47
73
84
80
72
62
46
31
22
18
14
10
10
14
15
15
17
20
25
33
40
39
25
9
-1
-14
-31
-48
-58
-63
-63
-60
-54
-46
-31
-7
14
27
36
42
43
40
37
34
29
22
17
13
8
1
-9
-19
-26
-28
-26
-22
-16
-4
17
40
48
38
17
-6
-32
-55
-67
-70
-74
-78
-78
-72
-60
-44
-26
-5
13
30
49
66
73
70
61
50
42
34
26
19
20
26
29
22
11
1
-3
-8
-11
-12
-10
-7
-1
4
4
0
-3
-4
-8
-11
-11
-10
-12
-12
-12
-15
-23
-32
-35
-30
-22
-13
-3
6
12
15
15
12
12
19
31
45
53
53
47
35
16
-8
-28
-38
-41
-37
-33
-33
-32
-29
-28
-31
-34
-32
-26
-18
-6
10
26
38
45
49
48
43
36
30
25
17
9
0
-11
-24
-32
-33
-34
-36
-32
-22
-13
-10
-10
-10
-7
-2
2
6
9
15
27
39
45
50
55
62
63
54
35
14
-2
-17
-34
-50
-59
-56
-51
-48
-49
-49
-43
-32
-15
7
24
29
29
28
25
18
8
0
-13
-32
-47
-52
-51
-45
-32
-17
-4
8
23
34
40
42
39
33
27
23
22
22
23
24
25
29
31
24
15
10
2
-11
-30
-40
-39
-33
-24
-16
-11
-9
-4
2
4
1
1
3
4
1
-1
-1
1
4
1
-5
-9
-6
0
0
-8
-17
-18
-7
10
18
10
-4
-18
-29
-33
-30
-22
-9
7
25
37
37
23
5
-4
-8
-13
-23
-36
-43
-42
-37
-26
-10
5
21
35
45
45
38
29
25
26
38
56
71
79
73
54
28
9
-1
-13
-32
-50
-60
-62
-60
-57
-48
-35
-22
-12
-3
-1
-4
-10
-14
-17
-20
-20
-16
-4
12
24
37
51
58
53
38
18
0
-16
-33
-47
-54
-52
-44
-37
-29
-18
-9
-12
-24
-29
-15
1
13
23
26
21
19
26
36
41
40
36
28
14
3
2
7
8
1
-10
-20
-20
-7
11
22
24
24
18
7
0
2
12
23
30
30
20
5
-6
-13
-21
-30
-39
-45
-48
-42
-25
-9
1
10
17
26
38
42
29
9
-8
-17
-19
-25
-38
-51
-61
-70
-79
-80
-71
-60
-51
-40
-24
-7
7
23
42
60
74
84
88
87
79
71
63
56
56
63
66
63
53
38
19
2
-5
-4
-5
-12
-20
-30
-45
-60
-72
-81
-87
-89
-83
-70
-55
-26
22
74
111
123
106
67
20
-25
-66
-106
-143
-163
-165
-160
-146
-114
-71
-25
16
48
66
71
76
84
88
88
84
83
87
93
97
94
79
53
20
-8
-21
-21
-13
-6
0
15
47
77
89
82
58
24
-12
-50
-81
-101
-116
-134
-147
-136
-103
-61
-25
0
18
28
34
35
34
35
41
53
65
73
78
77
62
32
-13
-69
-111
-131
-139
-145
-148
-139
-112
-72
-26
20
57
79
95
106
109
104
98
93
81
54
24
0
-16
-31
-43
-44
-37
-33
-31
-27
-21
-14
0
26
50
65
78
99
123
132
122
99
68
38
19
7
-6
-35
-88
-146
-184
-198
-195
-188
-174
-146
-107
-71
-44
-21
5
28
34
25
14
13
27
48
64
66
64
63
71
85
99
106
103
84
59
36
18
1
-12
-20
-26
-32
-38
-35
-23
-12
-3
4
4
-3
-7
-1
5
22
57
81
78
69
65
49
9
-42
-89
-125
-145
-145
-132
-113
-91
-70
-60
-55
-50
-33
-1
25
36
43
54
69
78
74
65
50
25
-1
-20
-29
-19
11
43
55
51
35
12
-2
8
48
111
171
195
181
152
102
29
-41
-99
-156
-215
-263
-267
-232
-177
-105
-23
46
90
112
120
106
72
30
-14
-58
-75
-62
-39
-21
-13
-15
-21
-27
-36
-51
-59
-45
-12
25
60
87
112
134
149
158
150
119
75
25
-27
-68
-78
-70
-65
-71
-84
-96
-103
-94
-64
-32
-17
-13
3
42
75
86
85
75
46
2
-34
-56
-70
-80
-86
-85
-76
-46
13
72
96
96
87
74
59
41
18
-18
-61
-89
-97
-97
-90
-68
-29
14
46
68
97
116
115
106
91
64
27
-8
-37
-62
-77
-68
-39
-14
4
21
38
61
87
89
48
-14
-74
-121
-149
-156
-132
-80
-4
73
119
127
110
68
3
-56
-94
-113
-121
-123
-109
-71
-21
23
56
76
92
113
143
169
168
148
122
76
-2
-90
-166
-227
-256
-232
-161
-74
-2
46
76
81
61
29
-4
-27
-19
20
78
144
202
224
209
176
132
74
19
-25
-66
-113
-154
-168
-153
-128
-106
-91
-87
-89
-93
-105
-123
-126
-107
-71
9
139
242
268
236
177
104
30
-36
-97
-148
-169
-149
-109
-68
-28
6
21
22
37
73
107
104
73
53
88
166
215
200
151
74
-32
-125
-165
-162
-146
-128
-98
-58
-25
-10
-12
-19
-22
-21
-18
-10
6
32
63
97
130
135
94
10
-88
-161
-199
-228
-249
-232
-163
-69
10
69
114
135
127
108
79
48
47
75
100
102
83
59
40
18
-14
-45
-62
-65
-68
-66
-34
37
132
227
299
313
250
134
2
-145
-302
-413
-451
-427
-338
-192
-42
66
143
194
205
171
110
44
-14
-53
-57
-36
-12
3
14
30
56
79
83
70
44
13
-17
-40
-40
-17
10
34
62
83
72
35
-1
-25
-33
-25
-5
5
-5
-17
-3
14
7
-25
-74
-133
-179
-191
-153
-82
-25
-6
-7
0
30
58
74
86
94
87
65
37
14
7
17
30
39
45
62
98
134
142
122
86
49
16
-12
-43
-77
-112
-134
-137
-128
-122
-135
-160
-176
-167
-127
-62
2
51
81
104
130
150
156
148
111
47
-11
-43
-59
-74
-92
-99
-88
-66
-29
15
49
66
71
74
81
91
117
175
237
254
215
145
61
-41
-150
-233
-271
-275
-260
-229
-181
-129
-78
-10
63
95
78
38
-14
-71
-102
-93
-66
-37
-10
15
51
106
184
255
263
209
137
76
43
52
85
93
41
-55
-136
-174
-192
-214
-237
-236
-203
-129
-15
88
160
229
299
325
271
155
19
-120
-242
-291
-267
-228
-191
-132
-46
34
86
101
85
55
24
-2
-16
-12
5
28
58
108
174
218
221
180
94
-21
-116
-168
-186
-172
-124
-61
-5
26
20
-22
-71
-99
-99
-73
-36
-2
25
47
68
85
89
88
94
108
122
138
170
195
152
26
-101
-180
-224
-261
-295
-306
-281
-228
-146
-43
46
106
147
174
178
154
123
97
83
88
99
96
75
45
15
-5
-27
-64
-119
-173
-193
-163
-98
-18
56
100
106
92
80
87
118
152
158
131
86
43
7
-23
-37
-19
9
9
-26
-90
-172
-244
-288
-315
-329
-317
-257
-162
-60
39
128
180
197
201
200
198
198
196
187
180
177
158
111
49
-24
-104
-159
-179
-181
-165
-121
-59
-3
35
58
65
52
30
14
15
28
34
28
13
-16
-57
-72
-55
-39
-50
-78
-92
-71
-16
46
78
77
56
23
-23
-68
-78
-67
-75
-93
-69
8
93
139
137
104
61
22
-9
-38
-66
-79
-64
-27
17
55
73
82
89
86
71
44
9
-18
5
87
147
136
81
-5
-109
-183
-209
-216
-224
-228
-205
-150
-52
86
213
301
358
373
324
208
60
-78
-214
-355
-443
-441
-374
-265
-133
-17
60
104
116
107
92
89
105
139
168
170
153
143
152
170
172
148
109
57
-8
-71
-126
-177
-217
-227
-207
-180
-160
-142
-118
-82
-35
12
60
106
130
135
149
177
194
175
137
124
142
149
99
-2
-124
-257
-370
-405
-364
-297
-227
-142
-33
92
203
260
251
196
125
56
-2
-50
-80
-86
-72
-36
20
86
141
179
194
168
101
21
-49
-117
-182
-214
-203
-156
-81
-8
40
65
72
67
49
26
20
71
177
265
280
238
167
80
-6
-84
-152
-232
-327
-393
-397
-339
-242
-150
-98
-79
-61
-24
29
90
157
220
259
264
240
195
139
81
30
-3
-23
-35
-33
-20
-12
-17
-26
-31
-28
-18
-3
14
36
57
67
68
67
69
64
50
32
20
29
59
65
26
-38
-119
-198
-244
-250
-234
-203
-162
-111
-55
-10
10
19
36
69
105
140
173
181
148
89
22
-36
-62
-51
-31
-27
-42
-68
-94
-109
-107
-95
-87
-80
-61
-4
97
194
247
261
248
213
161
101
45
-20
-96
-145
-156
-144
-123
-96
-64
-38
-29
-32
-29
-20
1
43
104
160
167
126
49
-57
-145
-181
-183
-172
-149
-105
-39
29
83
116
137
156
169
162
139
106
61
13
-26
-59
-88
-106
-109
-110
-112
-101
-82
-69
-58
-42
-22
-1
23
42
48
44
34
24
15
8
6
21
53
93
129
135
96
27
-40
-87
-108
-115
-117
-107
-88
-64
-34
-2
31
66
89
93
83
69
52
38
28
18
11
17
28
31
24
3
-33
-63
-75
-80
-84
-80
-72
-58
-36
-8
12
17
12
12
19
26
30
34
35
30
22
19
19
23
45
70
63
30
0
-28
-63
-95
-115
-124
-126
-115
-84
-38
9
58
98
108
90
67
50
33
13
-8
-25
-31
-24
-10
3
16
33
60
77
71
52
29
6
-13
-26
-32
-34
-34
-25
-5
17
34
39
32
20
10
0
-13
-23
-28
-30
-30
-29
-25
-14
-2
-2
-16
-28
-24
-11
-13
-34
-57
-73
-80
-74
-53
-27
-3
18
45
85
122
138
130
96
41
-10
-44
-69
-91
-102
-97
-77
-48
-14
8
18
28
60
119
164
167
135
73
-8
-78
-121
-146
-161
-159
-127
-72
-10
55
117
142
125
93
61
32
14
8
5
-1
-5
-3
0
3
7
16
21
18
11
1
-9
-18
-21
-19
-18
-23
-29
-37
-46
-52
-55
-54
-48
-38
-27
-15
-8
-3
2
9
17
25
32
34
31
28
28
26
22
15
6
-1
-6
-9
-15
-26
-33
-31
-24
-17
-9
0
10
21
36
47
47
40
36
32
19
-5
-32
-56
-72
-75
-57
-27
-1
15
28
38
41
41
43
44
33
11
-12
-33
-55
-66
-63
-58
-51
-32
-2
25
47
66
82
85
76
59
39
16
-6
-21
-27
-31
-32
-29
-18
-5
7
14
11
0
-8
-14
-16
-16
-15
-12
-6
-2
-1
-1
-3
-7
-11
-11
-10
-10
-8
-4
-5
-3
4
7
4
-2
-6
-7
-7
-9
-8
-6
-4
4
19
27
24
18
13
9
4
0
-5
-9
-10
-7
-3
-6
-14
-18
-17
-16
-14
-11
-5
0
4
7
10
14
19
25
30
29
25
21
18
16
12
5
0
-3
-6
-9
-14
-20
-21
-20
-20
-22
-22
-17
-11
-8
-5
0
6
12
21
30
32
28
25
22
15
6
0
-1
1
8
12
9
-3
-19
-31
-35
-34
-30
-31
-38
-40
-33
-18
-1
10
22
36
48
55
58
54
40
18
-5
-27
-38
-38
-31
-24
-20
-13
0
12
16
12
3
-2
-6
-7
-7
-6
-3
3
10
13
11
7
5
0
-7
-13
-15
-17
-19
-17
-15
-18
-23
-19
-12
-11
-10
-8
-4
0
5
10
11
12
19
27
30
26
22
18
15
10
7
4
1
-2
-4
-4
-8
-14
-18
-18
-14
-10
-6
0
3
6
10
12
14
18
22
23
20
14
10
10
6
-1
-11
-17
-19
-17
-14
-16
-22
-23
-19
-15
-9
-2
2
4
5
5
5
5
8
13
16
15
13
12
13
10
0
-5
-6
-6
-3
0
-5
-17
-23
-21
-17
-14
-11
-9
-6
-3
1
9
18
25
26
21
16
14
18
22
18
10
3
-3
-7
-6
-4
-7
-14
-17
-14
-10
-10
-12
-13
-13
-12
-10
-9
-10
-7
1
12
20
24
25
20
12
3
-4
-9
-12
-14
-14
-19
-24
-26
-22
-11
-3
-1
-1
3
15
26
28
24
21
22
19
12
6
1
-2
-2
-2
-1
-2
-4
-6
-6
-9
-17
-22
-18
-11
-7
-6
-5
-4
-1
1
6
9
12
14
17
17
14
11
12
14
15
12
6
2
1
0
-9
-21
-27
-26
-23
-21
-19
-16
-11
-5
3
9
12
13
16
21
22
18
15
13
8
3
0
-3
-7
-11
-12
-14
-17
-20
-21
-21
-20
-16
-9
-1
2
5
7
7
6
8
13
16
15
14
15
16
12
4
-5
-9
-8
-5
-8
-21
-34
-37
-35
-31
-27
-21
-12
0
14
26
33
36
40
45
46
39
29
21
12
3
-2
-5
-8
-13
-17
-20
-22
-22
-18
-12
-8
-5
-2
0
-1
-2
-2
-4
-6
-2
4
9
7
4
5
8
11
14
16
16
13
11
10
1
-10
-17
-15
-13
-13
-13
-10
-6
-3
0
3
5
9
16
21
19
14
12
11
7
0
-6
-8
-8
-9
-14
-23
-28
-26
-22
-15
-9
-3
1
3
1
-1
-2
-1
1
9
17
17
11
6
2
0
0
2
0
-2
0
6
4
-6
-15
-19
-16
-13
-9
-6
-6
-7
-7
-6
-2
6
20
32
37
33
26
19
12
4
-3
-10
-13
-9
-3
-8
-21
-30
-31
-29
-27
-23
-16
-7
3
16
26
29
29
31
34
33
28
22
14
2
-11
-19
-23
-27
-29
-28
-27
-28
-25
-19
-10
-3
0
5
11
17
22
25
26
28
31
33
31
23
13
5
1
0
0
1
-1
-6
-10
-18
-34
-44
-41
-34
-30
-27
-21
-13
-7
0
9
20
28
36
43
44
44
45
44
37
20
4
-7
-16
-25
-34
-44
-49
-44
-34
-25
-22
-22
-23
-24
-25
-21
-14
-7
2
17
29
33
31
30
30
27
21
16
12
6
3
2
0
-8
-12
-6
6
19
22
15
5
-2
-8
-12
-10
1
18
31
32
19
2
-10
-22
-37
-54
-64
-66
-63
-60
-57
-52
-44
-33
-19
-2
12
22
29
37
47
52
53
52
56
63
66
60
50
39
28
19
12
6
0
-8
-16
-25
-34
-38
-40
-39
-31
-23
-12
2
15
25
32
38
42
42
36
24
4
-20
-42
-54
-63
-70
-73
-70
-66
-60
-52
-47
-42
-31
-15
2
18
29
35
39
49
66
81
85
82
73
54
29
9
-3
-17
-35
-49
-58
-63
-61
-53
-44
-37
-30
-19
-4
6
12
17
26
39
49
55
59
68
84
93
86
68
44
16
-7
-26
-42
-60
-79
-92
-92
-85
-80
-75
-66
-51
-35
-23
-12
0
13
26
34
35
33
30
31
34
33
28
24
23
20
16
16
21
30
42
53
56
48
33
13
-10
-32
-46
-54
-60
-68
-71
-70
-67
-60
-49
-35
-24
-15
-3
14
30
40
45
46
44
42
41
35
25
15
9
10
12
14
14
13
12
12
11
8
8
10
11
4
-8
-20
-25
-29
-33
-33
-29
-25
-24
-22
-19
-15
-10
-3
4
10
15
18
16
10
1
-6
-9
-8
-4
0
1
-3
-11
-15
-17
-20
-21
-22
-20
-10
0
2
0
1
6
10
9
7
7
8
11
16
21
28
39
56
70
78
76
59
37
17
0
-16
-35
-50
-57
-59
-70
-92
-107
-107
-99
-89
-78
-64
-48
-33
-14
9
32
49
64
81
93
94
94
110
139
154
146
123
90
49
11
-21
-53
-82
-108
-124
-130
-133
-135
-134
-127
-111
-89
-60
-23
13
40
59
72
82
86
86
83
76
66
55
47
42
35
22
9
2
0
-1
-7
-12
-12
-8
0
4
3
0
0
2
3
0
-7
-10
-14
-22
-31
-34
-33
-29
-19
-14
-14
-13
-7
-4
-8
-12
-11
-8
-7
-9
-11
-12
-12
-13
-11
-9
-9
-12
-13
-11
-8
-7
-10
-14
-12
-2
7
10
8
8
19
38
54
62
62
59
53
45
32
22
18
13
4
-5
-12
-14
-15
-16
-13
-10
-14
-22
-30
-35
-44
-55
-58
-49
-30
-16
-10
-8
-10
-14
-17
-17
-13
-6
5
17
23
25
28
28
26
22
19
20
26
30
31
31
29
24
18
12
3
-4
-5
0
7
14
21
26
26
22
15
4
-4
-6
-2
-3
-11
-21
-30
-40
-46
-44
-36
-27
-24
-26
-30
-35
-37
-34
-30
-25
-17
-10
-4
0
7
17
24
28
28
24
15
7
-1
-8
-6
5
17
20
17
22
36
42
37
26
18
14
11
11
11
13
16
18
15
6
-5
-19
-26
-29
-34
-40
-44
-47
-44
-37
-36
-42
-45
-42
-34
-22
-9
5
18
31
46
61
71
73
74
76
76
70
60
50
35
17
3
-6
-14
-21
-24
-26
-28
-26
-20
-11
-6
-9
-15
-21
-32
-43
-51
-59
-65
-67
-62
-49
-34
-24
-21
-23
-27
-29
-28
-27
-23
-16
-12
-10
-1
14
30
41
47
53
55
54
50
45
38
31
29
31
34
35
32
28
21
9
-5
-16
-20
-20
-18
-16
-16
-12
-6
-3
-3
-6
-6
-3
2
10
20
27
32
39
51
60
60
54
44
32
19
8
-2
-15
-28
-35
-40
-45
-45
-35
-26
-29
-39
-47
-51
-50
-44
-36
-28
-26
-23
-17
-10
-7
-6
-6
-4
-5
-9
-15
-22
-24
-22
-22
-23
-21
-15
-2
16
32
40
45
53
65
78
85
88
91
93
86
71
54
49
51
46
26
-1
-33
-68
-94
-112
-128
-144
-156
-156
-145
-131
-114
-96
-85
-77
-63
-43
-17
11
38
61
83
108
127
134
133
131
126
118
107
93
74
50
31
20
14
11
11
16
19
16
10
4
-3
-8
-9
-6
-3
-6
-15
-25
-36
-49
-61
-68
-73
-76
-75
-74
-77
-78
-71
-57
-45
-34
-22
-9
3
13
22
30
38
49
61
68
68
65
64
63
59
51
41
30
20
15
14
12
6
-2
-10
-16
-28
-47
-64
-73
-73
-68
-70
-71
-64
-50
-35
-25
-19
-15
-9
-5
-3
1
6
11
17
24
26
23
25
30
36
42
48
54
58
62
68
75
82
86
82
69
48
27
5
-16
-35
-41
-37
-36
-45
-51
-49
-48
-56
-70
-80
-83
-85
-88
-89
-86
-78
-70
-57
-37
-16
0
10
11
4
0
2
8
17
31
43
51
57
63
63
58
53
50
47
46
45
47
52
62
74
81
81
75
66
53
39
23
11
0
-9
-19
-25
-31
-37
-38
-36
-40
-50
-63
-73
-75
-70
-64
-58
-52
-45
-32
-14
0
7
7
6
3
0
-2
-1
-2
-6
-12
-19
-26
-28
-27
-30
-38
-43
-43
-38
-29
-16
-2
12
26
42
64
84
95
99
99
92
80
67
56
47
37
22
5
-9
-18
-23
-31
-44
-54
-60
-65
-65
-61
-56
-49
-42
-36
-31
-26
-16
2
22
31
30
26
27
27
23
17
8
-4
-14
-16
-14
-12
-7
-1
4
7
7
6
7
11
21
33
38
35
32
33
30
22
16
12
12
18
19
16
13
10
-1
-25
-53
-72
-83
-91
-98
-101
-99
-90
-79
-65
-49
-34
-17
5
30
49
60
69
82
96
107
115
117
110
97
83
68
47
21
3
-3
-9
-22
-39
-48
-48
-45
-39
-35
-32
-25
-14
-4
4
14
26
38
41
30
12
-2
-13
-22
-32
-41
-47
-48
-47
-48
-52
-54
-54
-54
-54
-46
-30
-14
2
21
35
41
40
39
39
35
28
24
23
24
26
20
3
-19
-37
-44
-40
-38
-37
-33
-28
-23
-20
-18
-19
-14
-3
9
18
26
33
40
47
54
65
76
81
79
67
44
22
9
6
8
8
1
-9
-19
-27
-35
-41
-41
-37
-32
-28
-28
-32
-38
-40
-37
-30
-21
-15
-8
4
14
15
7
-3
-10
-14
-14
-13
-9
-4
-1
0
0
1
3
11
19
23
22
19
16
15
18
21
23
22
23
24
23
22
21
23
24
22
16
8
2
-2
-7
-14
-20
-19
-11
2
14
14
7
0
-7
-15
-19
-14
-7
-8
-22
-40
-51
-52
-41
-28
-23
-23
-24
-23
-20
-13
-2
8
17
20
19
13
4
0
4
11
16
18
19
19
19
21
17
8
4
4
3
-3
-13
-19
-21
-21
-18
-6
11
33
57
70
65
49
34
20
2
-20
-41
-55
-64
-73
-83
-89
-85
-76
-62
-44
-28
-13
3
24
42
53
58
61
63
68
72
71
63
53
42
31
22
14
7
5
11
16
17
17
12
3
-3
-10
-20
-32
-42
-46
-46
-45
-45
-46
-43
-38
-35
-33
-29
-20
-8
6
28
56
80
95
91
63
28
7
-2
-11
-27
-43
-52
-56
-68
-87
-98
-98
-94
-86
-68
-46
-25
-5
16
43
67
84
99
112
117
105
81
54
26
-1
-22
-35
-44
-52
-55
-52
-42
-26
-7
11
24
28
27
23
21
25
31
33
31
31
32
31
23
7
-7
-14
-14
-10
-9
-9
-7
0
7
11
9
1
-9
-21
-31
-36
-37
-36
-34
-34
-39
-49
-57
-58
-54
-46
-38
-31
-19
-2
14
28
43
70
108
137
145
139
121
96
71
52
33
5
-28
-57
-75
-91
-111
-131
-142
-142
-134
-119
-102
-83
-64
-44
-20
9
38
63
81
94
103
103
95
87
82
77
69
59
47
38
30
24
23
26
30
27
12
-8
-28
-46
-62
-72
-77
-81
-85
-89
-89
-84
-75
-65
-50
-31
-15
-6
2
18
32
40
46
54
64
72
82
90
86
69
48
31
19
8
-1
-8
-12
-15
-16
-13
-9
-3
-3
-12
-27
-39
-42
-40
-39
-43
-46
-47
-45
-41
-39
-38
-35
-24
-3
14
22
27
41
65
85
91
87
77
59
40
23
7
-11
-34
-52
-64
-72
-76
-76
-68
-51
-30
-15
-3
3
9
13
10
7
7
9
13
19
22
21
17
17
15
8
0
-2
2
8
12
16
25
42
68
93
101
91
68
39
6
-22
-40
-51
-60
-72
-79
-78
-77
-78
-75
-63
-46
-29
-11
7
18
21
22
24
24
24
23
17
2
-14
-19
-14
-8
-4
3
13
26
41
62
85
94
87
75
59
38
18
0
-19
-46
-77
-100
-111
-114
-112
-110
-103
-91
-74
-49
-21
4
28
55
93
135
156
146
123
97
68
39
13
-8
-30
-53
-68
-75
-78
-79
-78
-72
-60
-44
-20
8
28
39
44
48
51
49
42
34
24
12
3
2
1
-6
-17
-21
-19
-16
-13
-6
4
17
26
23
9
-5
-14
-15
-16
-19
-17
-10
-4
-2
0
1
4
8
17
33
50
64
71
67
53
35
19
6
-10
-33
-51
-63
-71
-75
-74
-67
-59
-56
-60
-69
-75
-75
-72
-66
-54
-40
-26
-15
-2
14
29
37
41
50
63
73
80
80
74
65
59
56
52
48
41
35
30
27
28
33
38
42
47
49
40
25
17
19
22
11
-6
-24
-46
-68
-85
-99
-110
-117
-116
-109
-98
-83
-63
-40
-18
1
19
38
59
75
81
78
69
59
51
47
44
42
42
45
46
40
17
-16
-44
-56
-59
-66
-77
-84
-82
-75
-70
-69
-68
-62
-51
-37
-23
-11
0
16
30
35
35
39
50
64
75
76
71
66
62
52
37
22
14
6
-7
-20
-28
-33
-33
-25
-14
-7
-4
-1
3
9
11
9
1
-10
-19
-27
-37
-44
-43
-33
-20
-9
0
10
19
26
31
36
41
48
56
61
59
51
44
40
33
18
-1
-17
-27
-32
-39
-51
-61
-65
-62
-53
-43
-34
-27
-18
-5
12
22
21
18
20
26
27
20
11
3
-1
-5
-8
-13
-19
-27
-33
-37
-40
-42
-37
-26
-17
-13
-10
-3
4
11
18
25
35
47
56
61
53
36
21
14
14
14
10
3
-4
-10
-18
-27
-31
-27
-20
-11
2
23
45
57
54
36
15
-2
-14
-25
-38
-49
-53
-50
-45
-42
-40
-37
-34
-30
-22
-9
4
19
34
47
52
49
42
32
18
7
1
-4
-9
-7
0
6
6
5
7
8
4
0
0
5
10
17
23
22
12
0
-9
-18
-28
-36
-43
-50
-56
-56
-46
-31
-12
6
22
32
37
42
47
52
53
47
35
22
9
-1
-12
-18
-16
-9
-3
-1
0
3
2
-8
-22
-33
-39
-40
-37
-34
-33
-31
-25
-13
-3
2
8
12
18
23
28
29
30
30
32
31
25
18
13
8
5
5
9
18
29
34
32
21
4
-6
-13
-22
-37
-51
-61
-62
-59
-55
-49
-39
-21
-1
21
46
56
46
30
14
1
-9
-19
-24
-22
-21
-23
-25
-25
-18
-8
2
13
27
42
55
60
57
48
35
27
26
26
23
12
-7
-26
-37
-45
-54
-60
-56
-41
-24
-13
-9
-8
-5
-1
1
3
5
12
19
19
12
8
13
18
20
17
14
13
18
23
20
14
10
6
-5
-27
-42
-43
-41
-48
-62
-71
-68
-59
-42
-20
-2
13
28
41
48
49
46
46
49
53
55
53
48
45
46
46
42
34
29
32
41
48
47
33
3
-30
-56
-75
-97
-119
-130
-124
-110
-96
-79
-62
-44
-26
-7
12
29
42
52
55
48
40
36
35
35
36
31
27
27
21
6
-5
-6
0
7
8
2
-3
-7
-11
-11
-2
15
36
47
41
24
9
-3
-17
-34
-45
-47
-50
-53
-53
-50
-44
-39
-28
-11
0
3
4
11
24
35
40
43
42
40
37
28
15
0
-13
-20
-20
-17
-19
-23
-22
-15
-2
14
29
34
31
25
19
13
9
8
7
7
7
4
0
0
2
5
5
4
7
8
2
-3
-4
-1
0
0
-1
-6
-17
-28
-41
-56
-70
-80
-83
-77
-65
-47
-30
-8
19
46
62
75
89
96
93
84
66
43
19
1
-8
-13
-19
-30
-34
-30
-26
-26
-28
-25
-19
-13
-8
-3
0
4
11
24
39
47
46
41
31
14
-1
-9
-9
-7
-7
-9
-14
-21
-30
-40
-48
-50
-44
-24
4
26
37
41
39
35
28
14
0
-9
-16
-23
-31
-35
-32
-27
-22
-20
-20
-21
-20
-15
-7
-4
-7
-10
-9
0
20
45
65
75
77
70
53
30
7
-14
-36
-56
-74
-80
-72
-56
-34
-12
0
6
18
33
47
55
58
58
62
69
68
55
37
19
5
-8
-26
-41
-42
-25
-13
-18
-35
-55
-73
-85
-87
-83
-77
-70
-59
-43
-23
0
28
51
68
78
80
78
77
78
75
66
51
39
36
40
49
58
58
44
19
-22
-80
-127
-150
-160
-170
-176
-162
-129
-93
-53
-3
40
69
87
105
125
133
122
102
75
47
26
17
12
8
7
4
0
-1
9
30
42
29
-2
-48
-99
-120
-107
-87
-72
-58
-43
-32
-23
-4
22
40
43
39
35
32
30
33
41
45
40
32
27
23
14
4
-1
0
3
8
7
6
13
25
28
14
-4
-11
-14
-25
-42
-55
-58
-59
-59
-57
-52
-47
-37
-21
-4
8
17
25
33
40
49
64
81
86
71
43
10
-23
-56
-86
-104
-106
-98
-83
-55
-17
26
66
90
97
89
66
37
11
-1
1
12
18
11
-2
-6
3
16
24
24
15
1
-11
-20
-23
-23
-27
-34
-47
-65
-83
-91
-85
-64
-31
-3
17
39
76
133
182
197
179
137
81
28
-12
-47
-86
-136
-172
-178
-161
-124
-73
-14
36
66
76
71
53
29
8
-5
-9
-2
7
1
-19
-27
-8
15
28
30
24
15
9
-2
-27
-51
-62
-61
-48
-32
-22
-16
-13
-20
-37
-51
-53
-47
-26
11
42
62
95
150
200
204
162
108
57
10
-28
-54
-67
-75
-76
-73
-74
-78
-76
-62
-44
-23
7
46
79
91
83
62
35
8
-17
-37
-49
-50
-45
-38
-30
-21
-15
-15
-19
-23
-31
-27
5
50
79
77
36
-30
-90
-127
-147
-147
-127
-94
-56
-15
35
98
147
162
151
132
115
100
84
69
44
8
-16
-12
7
23
26
8
-31
-78
-120
-143
-139
-121
-103
-65
10
99
166
199
191
140
63
-8
-64
-109
-146
-163
-158
-143
-118
-76
-29
4
25
39
51
62
67
68
79
97
111
114
103
75
41
3
-44
-87
-109
-113
-108
-91
-45
31
92
106
90
54
-7
-77
-129
-153
-159
-162
-150
-105
-29
63
148
193
199
186
167
146
113
73
33
-19
-82
-128
-142
-135
-117
-95
-66
-28
5
29
40
36
27
24
33
46
53
56
51
32
10
-2
-5
11
48
70
53
6
-45
-94
-142
-180
-191
-175
-134
-77
-21
34
101
171
217
216
178
130
77
17
-35
-71
-92
-106
-120
-124
-111
-84
-45
3
47
70
72
61
48
38
24
1
-24
-37
-34
-23
8
64
114
135
135
107
40
-38
-97
-132
-161
-191
-201
-177
-132
-68
3
56
83
97
108
116
115
99
83
89
105
92
45
-9
-42
-54
-65
-82
-96
-114
-143
-157
-130
-61
17
66
73
64
61
75
102
118
115
110
96
61
15
-20
-48
-89
-140
-162
-138
-104
-76
-42
1
40
62
58
31
3
-12
-11
25
99
162
189
188
149
73
-2
-53
-86
-120
-165
-198
-200
-169
-107
-21
52
98
122
121
99
77
69
64
44
8
-23
-36
-41
-48
-49
-48
-59
-86
-118
-140
-138
-117
-93
-60
-8
47
89
113
127
133
127
112
105
120
138
128
91
48
-4
-74
-134
-164
-173
-152
-89
-8
57
95
100
76
37
4
-15
-31
-45
-51
-43
-14
34
84
127
148
120
47
-43
-127
-198
-246
-263
-237
-183
-131
-74
2
74
118
136
152
177
192
190
180
150
93
30
-16
-52
-91
-139
-176
-181
-161
-119
-48
27
79
100
114
146
183
197
177
115
23
-47
-80
-99
-126
-162
-186
-182
-154
-99
-28
28
58
76
97
112
95
57
22
-7
-43
-75
-90
-91
-72
-26
26
58
65
61
59
55
47
45
63
93
111
113
99
52
-29
-108
-157
-199
-253
-289
-275
-204
-87
37
116
141
137
113
73
38
25
30
47
72
96
111
112
94
57
17
-11
-29
-49
-67
-72
-67
-58
-47
-29
-11
9
37
64
79
74
54
24
-3
-15
-11
-5
-10
-16
-4
22
39
34
12
-18
-50
-69
-78
-91
-116
-145
-170
-186
-173
-121
-53
12
72
125
168
201
216
204
161
101
47
6
-25
-51
-68
-73
-70
-64
-49
-32
-25
-27
-30
-24
-8
11
28
40
49
61
79
98
108
107
102
87
49
0
-40
-76
-104
-121
-121
-107
-90
-75
-63
-58
-58
-57
-49
-33
-16
9
41
62
69
70
61
40
20
2
-18
-34
-34
-21
1
26
47
65
74
68
47
2
-58
-97
-99
-82
-52
-11
28
54
63
58
48
43
47
54
57
52
39
26
13
-1
-18
-31
-38
-39
-39
-36
-31
-29
-27
-16
-2
1
-6
-10
0
14
23
27
34
36
27
14
0
-17
-36
-52
-63
-68
-67
-60
-51
-41
-25
-4
10
14
14
12
9
7
12
22
29
34
37
36
32
30
32
33
27
17
8
1
-6
-14
-19
-21
-24
-24
-15
-2
5
5
-5
-24
-44
-56
-60
-54
-38
-16
7
29
50
73
91
98
93
75
50
30
20
16
13
7
0
-5
-15
-35
-59
-75
-81
-84
-79
-63
-43
-25
-6
16
35
41
37
32
22
6
-7
-15
-20
-26
-30
-30
-25
-17
-8
1
4
2
0
0
0
0
2
6
11
16
20
22
24
30
38
39
32
26
23
18
12
11
14
11
-2
-17
-27
-36
-44
-45
-40
-34
-32
-31
-24
-13
0
9
16
23
32
44
51
45
29
15
8
3
-1
-5
-12
-21
-26
-27
-25
-13
5
20
27
27
25
18
3
-7
-9
-6
-4
-2
1
7
11
14
17
14
6
-2
-9
-19
-27
-31
-29
-27
-26
-19
-10
-7
-10
-13
-16
-18
-15
-9
-4
0
7
13
14
13
12
12
11
9
9
9
8
6
4
0
-10
-21
-25
-23
-19
-13
-8
-4
-1
2
10
18
22
25
29
30
26
23
22
21
19
16
14
12
10
9
6
-4
-18
-28
-33
-38
-45
-48
-43
-34
-26
-16
-6
6
20
35
42
39
32
25
18
10
3
0
0
-2
-9
-15
-19
-20
-18
-13
-9
-8
-9
-5
1
10
19
25
25
21
19
19
17
13
9
6
4
1
-2
-6
-10
-14
-18
-24
-35
-44
-44
-40
-33
-24
-14
-4
4
12
19
24
28
32
36
38
35
29
24
19
12
3
-2
-6
-10
-12
-16
-20
-23
-23
-22
-20
-19
-16
-11
-5
0
6
10
16
23
27
26
19
12
10
11
8
0
-4
-11
-15
-15
-18
-24
-30
-31
-27
-23
-20
-14
-7
0
6
14
23
29
32
35
33
28
24
21
16
3
-7
-10
-13
-15
-13
-13
-18
-22
-23
-22
-20
-18
-15
-13
-10
-5
0
5
11
21
32
36
35
31
23
15
7
4
4
0
-12
-21
-24
-28
-30
-28
-23
-18
-11
0
10
17
20
22
20
18
18
22
26
22
12
3
0
-2
-5
-7
-13
-20
-22
-24
-30
-36
-34
-26
-20
-17
-12
-2
7
15
22
25
24
26
31
30
23
16
11
3
-7
-12
-10
-9
-10
-11
-11
-12
-14
-15
-13
-10
-9
-8
-5
-2
2
7
12
16
20
25
30
32
32
29
24
20
15
8
-1
-10
-14
-17
-27
-40
-48
-46
-42
-40
-36
-28
-18
-9
-3
1
8
17
28
38
43
41
35
29
22
15
11
9
7
3
-1
-10
-19
-24
-21
-14
-10
-7
-3
0
-2
-6
-10
-12
-13
-9
-5
-2
0
4
12
16
16
15
12
4
-2
-7
-12
-18
-23
-24
-21
-17
-12
-4
3
7
8
9
9
12
17
23
26
25
22
20
18
15
10
5
0
-6
-13
-23
-33
-35
-32
-27
-22
-16
-10
-5
-1
4
7
8
9
13
20
21
19
16
16
14
9
5
3
0
-3
-6
-7
-10
-15
-21
-25
-26
-22
-13
-3
3
8
13
16
16
14
13
10
5
2
2
4
4
5
6
7
10
12
9
0
-4
0
3
-1
-13
-22
-24
-22
-19
-17
-17
-15
-10
-3
0
3
9
17
23
24
24
21
11
-1
-11
-18
-22
-24
-23
-21
-19
-16
-11
-6
-3
-2
0
2
10
27
48
64
71
65
45
21
0
-19
-36
-53
-63
-64
-64
-65
-63
-52
-35
-17
-1
15
31
44
50
52
49
48
50
54
53
44
32
24
21
15
6
-2
-10
-15
-15
-8
0
8
14
13
4
-7
-16
-23
-33
-47
-56
-58
-58
-58
-51
-42
-36
-32
-25
-16
-10
-5
0
8
20
28
29
23
16
14
15
17
18
21
25
29
33
34
32
25
20
21
23
23
21
14
7
0
-5
-12
-19
-22
-21
-23
-33
-44
-46
-41
-34
-28
-20
-12
-2
7
17
21
22
23
27
29
26
21
16
13
7
4
4
1
-6
-14
-20
-25
-29
-27
-17
-9
-4
-1
0
0
0
3
7
10
15
21
25
26
25
24
21
15
6
-3
-15
-26
-30
-30
-33
-40
-44
-41
-32
-24
-16
-7
1
9
17
28
37
42
45
43
36
26
17
10
6
6
7
2
-7
-22
-35
-41
-47
-49
-45
-36
-27
-19
-10
0
10
18
26
33
39
44
49
55
62
66
61
49
37
26
11
-6
-20
-32
-53
-79
-93
-90
-79
-68
-58
-46
-32
-20
-7
5
16
25
33
40
42
40
39
39
37
34
33
30
24
20
19
14
4
-4
-7
-2
1
0
-7
-14
-21
-26
-28
-31
-32
-27
-19
-14
-13
-12
-9
-5
1
9
12
8
6
6
6
3
0
-2
-1
1
5
12
21
26
27
22
14
9
12
17
17
10
0
-9
-15
-20
-29
-39
-48
-52
-48
-43
-40
-32
-22
-10
0
5
11
20
33
45
50
45
36
30
32
36
37
38
37
29
15
4
-2
-14
-31
-43
-50
-57
-64
-67
-63
-56
-49
-39
-24
-11
0
10
17
25
36
46
51
51
48
44
39
32
25
18
11
7
9
11
9
6
5
5
1
-2
-2
1
1
-4
-14
-25
-33
-37
-37
-37
-40
-39
-32
-22
-14
-6
3
9
7
2
-3
-7
-8
-5
-2
0
3
7
16
27
37
45
47
43
38
31
25
16
4
-7
-18
-27
-32
-33
-34
-36
-33
-29
-29
-29
-25
-18
-9
-3
1
5
8
11
13
15
17
20
25
29
27
24
23
25
29
31
32
29
28
41
70
92
91
76
47
2
-39
-69
-88
-107
-128
-143
-147
-143
-132
-115
-95
-77
-63
-45
-18
6
26
43
59
74
87
95
97
91
81
71
65
58
51
47
41
30
20
12
2
-2
-1
3
7
11
14
11
2
-10
-24
-36
-47
-53
-53
-56
-60
-60
-53
-43
-33
-19
-5
7
20
33
41
41
38
38
40
38
30
21
14
6
1
1
0
-3
-11
-16
-22
-29
-34
-38
-38
-36
-34
-32
-29
-23
-15
-7
0
5
12
21
27
30
31
31
30
34
42
44
36
27
27
30
29
29
33
36
26
7
-15
-40
-67
-95
-114
-121
-121
-116
-105
-93
-81
-65
-46
-28
-10
10
30
46
60
71
77
76
74
76
77
72
66
62
59
55
52
52
50
46
43
41
35
25
15
8
3
-3
-12
-22
-32
-35
-28
-19
-15
-19
-25
-27
-32
-40
-46
-51
-55
-59
-61
-60
-57
-50
-41
-34
-30
-28
-24
-22
-20
-14
-5
0
7
15
20
18
15
16
21
26
29
32
34
36
38
42
46
55
67
73
68
53
34
17
3
-7
-16
-24
-35
-43
-40
-28
-12
5
17
18
8
-8
-26
-37
-44
-50
-58
-69
-75
-69
-57
-47
-38
-27
-6
21
49
66
69
62
52
42
31
19
9
4
0
-7
-14
-16
-14
-12
-10
-5
0
2
9
20
28
32
31
27
20
17
24
35
32
17
4
0
-7
-16
-25
-31
-32
-31
-29
-23
-15
-8
-6
-7
-9
-8
-2
4
7
10
14
18
18
16
12
10
7
5
1
-2
-7
-8
-3
0
4
7
9
8
4
0
-4
-6
-5
0
4
1
-4
-6
0
11
20
28
35
36
26
3
-22
-46
-61
-63
-57
-50
-46
-47
-57
-67
-71
-67
-52
-28
-7
2
5
5
9
15
18
21
34
50
59
58
54
48
45
45
45
45
41
35
31
28
23
17
14
12
10
7
0
-10
-18
-14
-1
7
-1
-18
-33
-44
-50
-54
-60
-66
-71
-71
-68
-63
-54
-44
-30
-14
2
18
31
40
50
61
71
80
96
117
127
121
109
88
59
34
17
2
-15
-35
-49
-55
-56
-56
-49
-36
-21
-14
-14
-19
-21
-15
-6
-1
-6
-18
-28
-36
-47
-60
-71
-76
-79
-80
-78
-74
-67
-49
-20
7
28
46
61
71
79
88
91
86
76
66
56
44
25
3
-16
-29
-38
-45
-53
-56
-53
-53
-55
-55
-45
-31
-15
2
24
43
52
54
57
65
75
83
84
75
55
35
20
6
-12
-34
-52
-63
-69
-72
-76
-82
-82
-75
-61
-44
-29
-17
-6
5
20
33
42
48
55
65
70
70
69
69
68
62
54
44
34
25
18
10
-1
-15
-26
-28
-26
-28
-36
-46
-50
-48
-43
-42
-43
-40
-33
-26
-26
-32
-37
-37
-35
-33
-30
-27
-23
-17
-10
-4
-1
3
10
21
37
54
67
81
96
104
95
75
57
41
23
5
-8
-16
-21
-29
-40
-52
-64
-77
-90
-96
-94
-86
-69
-44
-26
-18
-15
-9
0
8
16
26
33
38
44
49
51
50
45
38
32
28
24
18
11
7
5
0
-6
-5
2
11
16
18
17
15
13
15
19
22
24
27
29
26
19
15
12
6
0
-7
-12
-15
-19
-27
-37
-43
-44
-42
-40
-41
-41
-41
-39
-37
-33
-28
-25
-22
-13
-3
2
2
5
16
30
40
50
55
54
49
41
31
18
6
0
-3
-5
-10
-12
-11
-12
-15
-22
-33
-39
-40
-38
-40
-49
-54
-50
-41
-32
-26
-20
-15
-11
-8
-6
-3
5
19
34
47
54
59
66
80
95
98
89
76
64
52
40
27
14
1
-16
-34
-48
-57
-64
-73
-77
-78
-76
-66
-44
-17
2
14
28
46
57
57
53
46
37
26
17
7
-6
-23
-36
-42
-46
-48
-49
-45
-39
-34
-33
-40
-46
-43
-34
-23
-13
-4
5
15
28
41
47
44
42
42
40
37
37
41
47
54
60
66
74
79
69
43
13
-11
-29
-43
-53
-61
-67
-72
-78
-81
-79
-76
-70
-58
-43
-30
-20
-12
-1
8
17
26
36
46
52
51
48
44
37
30
25
20
14
9
7
8
8
7
1
-4
-6
-4
-4
-12
-19
-18
-13
-12
-15
-18
-21
-26
-30
-34
-39
-43
-42
-31
-16
-1
9
16
18
19
22
24
30
42
53
56
53
46
38
29
20
10
-1
-19
-36
-43
-45
-51
-55
-44
-20
2
14
15
15
18
23
33
48
61
67
63
46
15
-14
-31
-40
-51
-62
-69
-71
-68
-64
-63
-67
-70
-67
-56
-42
-27
-11
5
23
40
54
63
69
74
79
82
79
74
71
66
60
60
66
71
66
50
29
7
-15
-37
-51
-57
-60
-65
-70
-74
-74
-74
-74
-74
-68
-55
-40
-26
-11
3
17
31
50
72
84
82
71
59
45
26
5
-10
-21
-33
-44
-49
-48
-44
-41
-38
-34
-25
-4
23
34
29
20
10
0
-9
-15
-23
-36
-50
-59
-63
-67
-67
-60
-52
-48
-44
-36
-19
3
25
43
61
81
96
101
99
92
83
73
62
49
35
17
1
-5
-6
-14
-32
-49
-51
-40
-25
-10
-2
0
0
-2
0
6
14
23
29
24
13
1
-6
-15
-25
-32
-39
-45
-48
-50
-52
-52
-49
-43
-32
-18
-1
19
43
61
70
72
74
80
89
95
89
75
57
33
1
-38
-74
-95
-105
-108
-109
-109
-107
-99
-82
-64
-48
-31
-10
10
28
45
64
77
83
89
96
100
96
91
90
88
85
79
64
44
23
4
-10
-20
-28
-35
-43
-49
-49
-49
-52
-53
-52
-48
-44
-38
-28
-15
-4
1
4
8
9
9
9
4
-2
-4
-2
0
-1
-2
0
4
3
-7
-20
-25
-25
-22
-16
-8
-3
2
8
9
2
-6
-10
-13
-16
-19
-22
-26
-29
-33
-42
-51
-54
-49
-41
-31
-18
1
23
40
48
49
46
43
46
54
58
55
45
31
12
-1
-7
-10
-13
-18
-25
-29
-29
-29
-29
-27
-22
-16
-6
6
16
24
31
35
33
31
33
36
34
30
28
28
28
26
22
16
10
6
0
-9
-20
-22
-19
-19
-21
-21
-15
-5
2
3
0
-5
-7
0
11
16
13
9
3
-4
-13
-21
-34
-50
-65
-73
-76
-74
-62
-40
-22
-16
-15
-14
-10
-5
0
6
16
34
53
68
73
70
62
52
39
28
20
14
10
9
7
-1
-16
-26
-26
-21
-16
-10
-2
8
17
25
30
30
25
22
18
8
-1
-6
-3
1
2
0
-6
-12
-19
-29
-41
-50
-53
-49
-46
-45
-42
-35
-26
-19
-13
-6
1
12
26
36
39
38
35
33
32
31
31
28
25
25
31
35
28
14
5
1
-6
-23
-40
-48
-49
-48
-49
-53
-54
-44
-28
-14
-4
5
18
33
44
46
42
38
36
32
21
7
-1
-3
1
11
22
29
28
17
0
-13
-24
-30
-31
-29
-27
-25
-23
-20
-19
-19
-21
-24
-25
-22
-16
-10
-8
-7
-2
7
18
26
30
34
38
40
41
40
39
38
41
43
39
28
16
7
-3
-17
-33
-46
-53
-55
-58
-63
-64
-57
-45
-34
-26
-17
-7
2
11
16
18
20
26
36
38
31
23
22
28
38
47
53
56
52
40
21
-1
-26
-46
-58
-63
-65
-65
-61
-54
-45
-36
-28
-21
-12
-2
6
12
20
29
35
37
35
33
28
24
19
12
4
2
8
18
28
33
35
37
37
30
13
-7
-27
-40
-49
-58
-68
-72
-68
-58
-47
-39
-31
-19
-5
10
18
18
13
14
23
32
36
37
39
45
51
53
48
39
33
29
25
17
8
2
-2
-7
-13
-20
-30
-35
-33
-31
-33
-38
-38
-31
-25
-25
-27
-28
-25
-19
-8
6
17
26
38
45
42
32
24
20
13
2
-8
-15
-18
-20
-21
-27
-32
-32
-28
-23
-20
-13
0
21
50
76
85
80
63
41
20
3
-13
-29
-44
-54
-62
-71
-81
-88
-85
-74
-62
-51
-37
-18
2
23
48
79
101
104
97
83
66
52
47
42
30
11
-4
-13
-22
-33
-45
-50
-48
-43
-37
-35
-36
-34
-22
-2
15
25
30
37
44
50
51
45
38
34
30
21
8
-3
-13
-23
-31
-36
-38
-35
-32
-29
-26
-23
-20
-17
-18
-20
-21
-17
-8
0
4
8
12
15
18
21
20
15
12
13
16
20
21
20
18
16
14
8
-4
-15
-17
-16
-23
-36
-45
-45
-40
-32
-22
-15
-9
0
11
19
22
23
26
32
37
35
29
22
19
17
11
0
-10
-16
-16
-15
-15
-15
-20
-28
-35
-38
-39
-35
-21
-2
10
14
14
16
19
22
23
21
19
17
15
12
0
-18
-28
-28
-26
-25
-24
-21
-14
-4
3
11
18
29
40
45
43
38
36
35
29
16
0
-11
-16
-17
-17
-20
-24
-25
-23
-22
-24
-24
-20
-12
-1
7
10
8
12
23
30
28
21
19
22
20
12
1
-6
-12
-12
-10
-15
-23
-27
-23
-17
-15
-12
-3
4
8
10
11
9
10
17
22
19
14
13
12
10
3
-8
-20
-27
-30
-32
-38
-42
-37
-25
-13
-8
-7
-5
-2
4
14
23
29
35
48
62
68
60
46
34
18
0
-23
-48
-72
-89
-96
-98
-98
-93
-79
-61
-43
-27
-9
16
41
58
68
76
86
102
115
115
100
85
77
70
59
38
12
-8
-21
-31
-46
-66
-79
-78
-71
-67
-67
-66
-61
-51
-38
-23
-11
0
14
28
38
42
43
43
42
36
25
14
7
4
0
-8
-19
-23
-18
-11
-10
-15
-17
-15
-11
-10
-9
-9
-7
-1
3
4
3
2
5
7
9
10
10
10
11
10
6
-5
-17
-20
-17
-15
-18
-20
-16
-6
6
15
18
17
20
25
26
22
19
20
20
13
1
-10
-17
-20
-21
-23
-29
-33
-30
-23
-17
-11
-3
6
15
24
28
26
24
28
36
42
43
39
37
34
28
20
9
-5
-20
-26
-28
-36
-45
-50
-49
-46
-45
-41
-31
-24
-17
-8
1
12
25
39
48
51
51
55
62
65
67
73
78
69
46
11
-33
-70
-90
-106
-130
-152
-158
-152
-139
-120
-97
-73
-52
-30
-1
30
53
68
84
107
126
128
115
99
81
57
32
9
-11
-28
-39
-47
-56
-67
-74
-71
-59
-44
-26
-2
22
41
52
58
62
65
65
61
55
45
36
28
24
18
6
-7
-10
-5
-3
-11
-17
-16
-12
-9
-5
-4
-3
0
8
18
21
20
20
21
17
7
-5
-16
-22
-28
-35
-45
-52
-52
-50
-47
-44
-39
-33
-25
-16
-9
-4
-1
5
21
36
41
39
39
41
39
33
20
2
-13
-21
-22
-24
-32
-43
-46
-39
-33
-30
-25
-18
-8
2
14
24
31
37
42
41
33
27
29
34
33
25
14
7
3
0
-11
-28
-38
-39
-34
-30
-28
-21
-13
-5
2
6
6
6
11
19
21
17
14
15
18
16
9
2
0
-2
-6
-11
-15
-18
-14
-9
-7
-8
-11
-11
-9
-3
1
2
3
11
23
32
31
27
26
25
20
10
-1
-9
-13
-15
-22
-37
-47
-46
-37
-27
-16
-4
9
21
29
31
26
19
14
13
9
5
2
4
8
8
1
-4
-8
-11
-12
-16
-25
-32
-30
-23
-19
-18
-14
-2
11
19
18
14
12
16
21
21
16
12
11
14
14
11
5
-1
-6
-4
-3
-7
-14
-18
-18
-18
-17
-9
0
8
14
18
18
16
15
17
14
4
-3
-6
-5
-8
-15
-21
-23
-22
-16
-7
-1
-1
-1
-1
-4
-10
-15
-17
-17
-15
-7
0
8
17
28
33
28
21
21
29
35
39
40
35
25
13
1
-14
-33
-47
-51
-52
-51
-47
-38
-28
-18
-8
0
6
13
24
36
39
34
28
26
25
20
10
1
-3
-5
-10
-22
-34
-37
-34
-28
-25
-21
-15
-7
0
7
11
11
13
19
27
29
26
22
21
21
21
19
13
6
0
-7
-16
-25
-30
-30
-31
-34
-36
-35
-31
-23
-15
-8
-3
3
17
30
36
36
38
42
44
39
28
17
7
3
2
-3
-17
-28
-28
-24
-23
-26
-24
-18
-14
-9
-5
-4
-1
6
16
20
19
20
26
31
32
28
25
26
30
27
12
-9
-29
-46
-63
-80
-91
-94
-89
-77
-59
-40
-24
-7
14
35
46
50
51
55
57
53
48
43
34
27
25
22
13
0
-7
-7
-8
-11
-13
-11
-9
-7
-4
0
6
14
24
31
33
33
33
31
22
9
-4
-12
-16
-19
-27
-37
-42
-43
-43
-44
-45
-42
-37
-28
-15
-5
0
5
17
32
40
40
36
34
34
31
26
20
10
0
-9
-17
-28
-40
-47
-48
-49
-49
-45
-34
-22
-11
-3
5
16
28
38
45
45
42
43
47
46
37
26
17
12
10
2
-14
-29
-32
-33
-38
-47
-52
-47
-37
-25
-15
-9
-3
8
25
39
44
43
45
48
42
28
15
3
-7
-18
-28
-36
-42
-46
-45
-41
-36
-30
-22
-12
-1
8
13
17
23
33
41
42
39
36
38
36
28
15
2
-5
-6
-4
-9
-24
-36
-35
-30
-28
-28
-25
-18
-10
0
9
15
20
27
32
31
28
29
37
41
32
17
5
-5
-17
-30
-44
-54
-60
-60
-58
-58
-55
-48
-37
-23
-8
1
8
20
40
57
61
56
54
55
54
47
36
23
12
6
1
-8
-21
-31
-33
-30
-31
-34
-33
-28
-20
-12
-6
0
7
18
28
33
32
29
29
31
26
18
11
5
1
-1
-9
-21
-28
-28
-25
-27
-33
-35
-31
-26
-22
-20
-21
-20
-12
0
7
12
20
32
42
43
37
30
24
18
11
0
-13
-25
-35
-41
-42
-40
-37
-31
-24
-15
-5
1
8
20
33
42
43
43
46
48
42
30
15
3
-2
-5
-13
-24
-34
-33
-27
-23
-24
-24
-19
-11
-3
4
8
11
18
28
34
33
30
30
27
17
7
0
-5
-11
-18
-24
-32
-38
-39
-36
-33
-32
-28
-21
-11
-3
4
8
13
23
34
39
37
30
27
29
26
18
7
-2
-7
-8
-9
-18
-30
-36
-32
-27
-26
-25
-20
-14
-6
0
5
9
19
34
41
38
30
28
30
27
15
3
-3
-7
-10
-16
-26
-33
-32
-25
-17
-10
-3
1
5
8
9
5
1
0
-1
-5
-13
-21
-22
-20
-18
-19
-18
-15
-6
4
15
22
25
26
27
25
19
12
6
3
2
2
2
0
-1
4
10
9
1
0
7
11
8
3
-1
-5
-7
-10
-18
-27
-28
-23
-18
-17
-17
-12
-5
2
12
15
14
14
21
29
31
26
23
23
22
17
9
0
-6
-13
-19
-25
-32
-36
-36
-35
-34
-33
-29
-18
-8
-2
1
5
13
22
29
32
30
30
32
31
25
17
8
0
-3
-5
-11
-25
-34
-33
-28
-25
-24
-19
-13
-5
4
13
16
17
23
31
35
30
25
26
26
18
5
-2
-6
-5
-2
-6
-16
-27
-32
-34
-36
-37
-37
-32
-26
-19
-13
-7
2
20
38
49
50
47
45
41
34
26
14
0
-9
-14
-20
-31
-43
-46
-40
-35
-35
-33
-24
-10
2
12
20
25
32
39
42
37
32
33
34
28
16
4
-5
-11
-16
-24
-33
-37
-36
-32
-30
-26
-17
-8
-1
2
5
4
2
4
10
13
10
6
7
11
13
10
6
4
3
4
3
0
-8
-15
-16
-14
-14
-14
-13
-12
-10
-9
-8
-7
-1
8
16
18
17
21
28
28
21
10
0
-5
0
3
-3
-14
-19
-18
-15
-15
-15
-11
-5
2
8
9
7
8
13
17
14
10
9
13
12
4
-2
-7
-10
-9
-9
-12
-19
-23
-23
-18
-16
-15
-12
-7
-1
4
9
13
19
26
32
32
28
28
31
27
17
4
-8
-16
-16
-15
-19
-28
-30
-25
-20
-19
-19
-17
-12
-3
3
3
0
0
6
12
11
8
12
22
25
14
3
0
-2
-2
-3
-7
-15
-19
-17
-14
-15
-17
-12
-2
6
13
16
16
18
26
32
31
25
22
23
19
10
2
-5
-15
-19
-20
-22
-30
-38
-36
-30
-27
-23
-15
-8
-1
5
10
13
19
27
34
34
29
27
31
33
25
10
0
-7
-10
-14
-22
-34
-40
-38
-33
-29
-28
-25
-18
-9
0
8
13
19
30
40
43
39
34
32
