emg_value
43
29
7
-13
-26
-32
-36
-35
-28
-22
-22
-25
-27
-25
-14
-1
5
4
1
1
5
7
7
7
7
-2
-20
-33
-39
-42
-43
-38
-26
-12
-2
8
22
35
43
47
48
49
58
64
59
47
32
16
5
-1
-5
-11
-23
-34
-37
-36
-38
-39
-34
-26
-16
-8
0
4
2
-2
-1
0
1
3
9
15
17
13
8
4
-1
-6
-4
-5
-9
-10
-7
-7
-11
-12
-7
-1
0
3
8
11
14
16
16
15
15
20
23
23
21
22
27
27
20
9
0
-9
-14
-16
-18
-24
-31
-35
-36
-38
-41
-41
-39
-36
-30
-23
-20
-15
-8
-3
-2
0
8
19
24
26
28
24
14
4
-3
-14
-20
-15
2
26
41
43
42
35
19
4
-1
-4
-5
-7
-7
-8
-9
-9
-9
-12
-15
-16
-19
-23
-27
-29
-33
-36
-35
-23
-4
9
18
27
37
43
45
48
53
56
56
51
42
29
18
10
4
-5
-18
-30
-41
-47
-50
-53
-55
-50
-41
-31
-23
-16
-8
-1
5
16
26
29
32
40
47
47
40
35
29
21
14
13
11
2
-7
-14
-18
-20
-23
-24
-23
-20
-16
-12
-6
0
8
16
19
17
15
14
13
10
7
4
0
-7
-18
-30
-40
-45
-42
-41
-46
-51
-48
-40
-29
-16
-5
0
0
0
0
2
6
10
15
18
18
17
14
10
4
3
4
0
-5
-7
-6
-2
5
18
33
43
48
53
56
53
48
45
41
35
31
27
21
12
0
-14
-26
-31
-32
-39
-54
-63
-60
-52
-43
-33
-24
-17
-13
-9
-2
3
8
15
25
36
46
54
59
59
52
42
31
21
11
-5
-23
-37
-44
-46
-48
-53
-57
-58
-58
-60
-60
-56
-50
-43
-30
-15
-3
8
28
53
69
72
68
62
57
50
43
34
20
4
-9
-18
-27
-35
-38
-35
-26
-16
-8
-4
-4
-1
5
12
16
22
30
34
32
25
17
10
6
2
0
-3
-5
-3
-6
-19
-31
-32
-24
-17
-13
-10
-6
-2
3
10
14
15
18
24
32
31
24
21
19
16
14
16
19
18
11
-1
-12
-17
-20
-24
-31
-36
-38
-39
-39
-38
-32
-26
-17
3
25
34
32
23
11
2
1
6
13
12
2
-7
-17
-32
-50
-63
-67
-67
-66
-63
-58
-51
-44
-35
-20
-2
16
34
52
66
69
68
66
60
50
44
41
36
30
23
14
5
0
-1
-2
-2
2
10
19
27
35
39
32
22
20
19
14
7
0
-9
-17
-20
-18
-18
-21
-18
-9
-4
-8
-20
-28
-28
-25
-21
-15
-8
-1
4
1
-5
-6
0
4
5
8
10
12
10
7
5
1
-5
-10
-12
-20
-32
-37
-34
-21
-5
1
0
-2
-3
-4
-8
-12
-13
-10
-5
-4
-5
-4
-4
-8
-13
-13
-13
-21
-35
-44
-47
-46
-40
-26
-9
5
19
34
48
55
56
57
59
63
67
70
72
74
77
75
70
60
51
39
25
21
35
49
34
-22
-85
-118
-122
-112
-103
-95
-76
-20
54
87
73
58
58
61
57
46
24
-14
-59
-81
-68
-47
-40
-50
-69
-92
-111
-120
-119
-106
-87
-66
-44
-21
-5
0
1
10
30
50
59
63
68
78
86
91
92
81
49
12
-11
-20
-26
-29
-24
-13
-6
-9
-14
-14
-15
-16
-17
-20
-25
-21
-13
-10
-8
-4
0
3
3
7
18
26
27
25
18
5
-8
-16
-14
-6
0
5
11
16
20
13
-20
-65
-79
-60
-33
-13
1
16
28
33
37
39
33
27
28
25
18
11
9
12
17
25
35
44
48
50
54
59
66
75
83
79
64
47
36
30
28
28
23
11
-5
-25
-48
-66
-77
-81
-82
-82
-82
-78
-68
-60
-54
-49
-42
-34
-22
-4
10
18
21
24
27
27
25
23
15
0
-13
-27
-39
-50
-57
-57
-54
-55
-56
-52
-43
-32
-21
-10
2
13
27
40
47
50
52
52
49
48
46
39
32
28
24
14
3
-2
-3
-2
-2
-1
4
8
11
12
9
3
1
2
4
0
-7
-12
-14
-18
-23
-24
-26
-30
-33
-35
-37
-40
-39
-34
-27
-23
-27
-36
-37
-27
-11
2
13
21
30
36
36
32
28
28
29
25
20
14
10
12
17
23
29
35
43
49
47
31
8
-11
-19
-18
-14
-12
-9
-4
-1
-3
-7
-7
-3
-4
-7
-6
-5
-7
-7
-2
2
8
16
25
30
28
25
21
16
12
10
6
0
-8
-14
-20
-26
-35
-44
-51
-55
-54
-49
-43
-39
-37
-31
-23
-18
-13
-2
11
22
29
33
35
35
35
34
31
29
33
37
37
30
23
20
16
8
1
-6
-14
-22
-29
-35
-41
-43
-40
-33
-26
-18
-10
-3
1
7
12
15
19
29
36
35
29
20
12
8
9
13
12
0
-10
-15
-19
-27
-36
-37
-30
-22
-17
-12
-6
-2
0
-1
-4
-5
-1
3
5
2
-1
-2
0
5
14
16
10
5
0
-4
-11
-17
-21
-21
-19
-17
-13
-6
0
6
10
12
12
15
21
25
27
29
34
43
48
50
46
33
15
1
-9
-21
-30
-34
-35
-36
-36
-35
-29
-24
-19
-14
-8
2
16
29
37
42
42
36
28
22
14
2
-9
-17
-20
-26
-36
-42
-42
-40
-39
-37
-32
-24
-19
-14
-8
0
6
13
25
37
40
36
31
26
20
15
11
6
0
-3
-6
-12
-18
-20
-20
-18
-15
-8
2
14
20
23
22
20
26
38
47
45
33
17
4
-3
-6
-6
-13
-25
-32
-36
-44
-56
-61
-53
-41
-34
-30
-26
-19
-12
-3
5
12
19
28
31
27
22
20
22
21
17
12
5
-1
-5
-10
-15
-16
-13
-8
-3
1
6
10
14
16
18
17
17
19
20
18
15
10
7
5
4
5
9
7
-1
-8
-12
-16
-21
-25
-26
-22
-18
-16
-13
-10
-6
0
8
12
18
29
41
47
45
40
34
22
5
-10
-21
-29
-34
-40
-51
-60
-62
-59
-52
-44
-35
-25
-11
3
12
16
21
29
40
47
48
45
40
33
25
17
10
-1
-19
-32
-39
-43
-45
-43
-36
-27
-18
-9
1
8
10
14
22
29
35
43
48
47
40
35
31
27
27
29
25
15
6
-1
-10
-16
-19
-21
-26
-31
-32
-32
-30
-27
-25
-25
-25
-23
-17
-7
-2
-3
-4
-2
0
2
4
5
5
6
6
5
3
0
0
2
3
0
-1
0
3
7
12
16
21
29
37
39
35
27
19
12
6
1
-6
-18
-26
-30
-36
-47
-55
-53
-47
-41
-33
-26
-18
-11
0
14
25
32
38
45
46
38
28
20
12
6
5
4
-1
-9
-17
-24
-31
-37
-41
-40
-36
-28
-18
-8
0
5
9
14
19
25
31
33
33
34
36
37
34
30
24
11
2
2
3
-2
-13
-17
-11
-3
0
0
-2
0
6
20
36
42
40
36
26
7
-11
-23
-32
-45
-61
-75
-81
-80
-76
-73
-71
-67
-58
-45
-31
-18
-4
11
26
40
50
53
52
54
63
68
65
61
58
52
41
29
19
9
0
-9
-15
-19
-23
-26
-24
-19
-16
-16
-16
-15
-12
-9
-7
-6
-1
7
14
17
17
15
12
9
4
-2
-9
-13
-14
-14
-16
-19
-19
-14
-8
-5
-5
-3
2
10
20
27
31
36
40
41
37
28
20
13
6
2
-1
-8
-16
-21
-17
-5
17
52
77
72
51
37
39
48
45
27
4
-24
-46
-58
-70
-82
-92
-103
-113
-115
-110
-96
-85
-79
-75
-75
-81
-85
-75
-57
-42
-37
-32
-24
-16
-8
4
16
28
41
53
64
69
69
66
59
47
35
31
25
12
3
5
10
11
12
20
29
35
37
42
49
53
55
56
58
61
65
66
63
60
57
51
40
32
26
16
3
-7
-13
-18
-24
-30
-33
-32
-32
-32
-32
-33
-33
-32
-27
-19
-10
0
6
5
0
-3
-5
-13
-28
-38
-39
-40
-42
-38
-32
-27
-23
-16
-7
-1
3
7
12
17
23
24
19
13
12
14
15
12
7
3
-6
-20
-27
-30
-34
-32
-25
-21
-21
-18
-9
3
15
21
20
18
19
26
31
29
24
21
21
18
12
7
5
6
6
0
-14
-25
-29
-28
-27
-30
-31
-29
-27
-23
-17
-8
2
11
17
21
21
21
29
41
48
45
38
30
22
14
7
0
-14
-33
-47
-52
-51
-45
-36
-28
-22
-17
-11
-1
9
23
39
53
62
63
58
49
38
33
31
27
13
-6
-21
-29
-36
-45
-57
-70
-78
-81
-81
-75
-64
-47
-26
-6
11
27
36
39
42
51
61
64
61
57
47
32
20
10
-1
-11
-20
-27
-31
-35
-36
-35
-31
-26
-19
-8
5
17
27
36
49
61
66
63
53
41
32
23
13
1
-13
-31
-45
-50
-50
-56
-69
-77
-74
-68
-62
-54
-45
-36
-26
-12
0
12
25
44
65
74
70
62
49
25
-1
-26
-44
-53
-54
-52
-50
-50
-49
-47
-42
-32
-16
4
27
51
73
89
104
121
134
133
124
105
79
51
28
8
-13
-39
-59
-68
-70
-74
-81
-83
-76
-65
-55
-46
-36
-25
-14
-1
11
22
31
41
51
62
64
58
49
36
21
7
-2
-10
-16
-24
-31
-37
-39
-38
-34
-33
-32
-27
-18
-6
1
5
8
14
25
29
25
17
10
5
0
0
0
-4
-12
-16
-11
-5
-6
-13
-19
-21
-22
-19
-9
0
0
-2
-6
-14
-21
-20
-15
-12
-14
-17
-17
-16
-16
-17
-18
-15
-6
1
3
1
0
1
7
14
23
34
39
40
40
40
36
31
29
33
34
32
30
28
23
15
5
-4
-13
-18
-20
-21
-21
-16
-7
0
1
2
4
2
-1
-1
0
-1
-5
-7
-7
-9
-14
-21
-25
-29
-32
-35
-38
-38
-29
-17
-5
6
13
12
11
11
11
10
10
10
11
13
13
14
20
30
34
29
19
10
0
-11
-20
-26
-29
-28
-26
-25
-24
-22
-19
-14
-10
-8
-8
-2
9
19
27
30
33
39
45
47
43
38
33
29
26
22
16
8
5
2
-4
-16
-33
-44
-45
-44
-49
-51
-47
-38
-30
-21
-12
-3
4
12
17
18
16
14
13
11
8
3
-3
-6
-8
-15
-23
-30
-31
-28
-2
72
73
74
76
80
83
82
78
75
71
63
49
33
15
-6
-23
-35
-48
-63
-77
-84
-81
-76
-72
-61
-47
-32
-19
-7
4
15
25
36
45
47
46
44
42
39
33
24
19
18
13
4
-4
-8
-8
-8
-8
-7
0
6
10
13
10
3
-2
-4
-5
-10
-17
-20
-19
-18
-21
-27
-30
-30
-32
-39
-46
-47
-41
-28
-10
2
10
14
15
12
8
7
4
0
3
8
5
0
0
5
9
11
8
0
-7
-6
0
1
-2
-3
0
4
5
7
10
8
3
-2
-4
-2
3
12
19
19
14
10
9
9
7
5
3
2
0
-3
-9
-15
-19
-19
-17
-17
-15
-9
-1
3
6
9
11
15
22
26
25
21
18
19
21
20
18
14
5
0
0
0
-5
-14
-20
-21
-21
-21
-21
-18
-13
-7
-2
0
1
6
10
10
4
0
-1
-1
1
3
8
11
11
5
-6
-19
-23
-23
-23
-22
-19
-14
-6
3
14
23
26
25
25
27
24
13
0
-9
-13
-12
-8
-5
-4
-6
-11
-18
-30
-45
-55
-56
-55
-54
-50
-41
-30
-17
-6
1
9
17
30
42
47
46
46
50
55
55
53
49
45
40
34
24
14
8
5
1
-4
-10
-11
-8
0
10
14
11
9
11
18
24
22
17
9
0
-11
-22
-31
-42
-60
-78
-89
-93
-92
-87
-75
-56
-33
-9
8
18
20
21
27
43
60
66
62
55
49
42
33
21
4
-16
-31
-34
-33
-36
-42
-42
-33
-21
-11
-2
1
1
2
11
33
55
66
67
62
54
45
38
33
26
13
1
-4
-11
-19
-31
-43
-51
-52
-47
-40
-36
-31
-22
-9
7
24
35
42
47
52
53
46
33
18
1
-13
-23
-31
-44
-62
-73
-74
-73
-64
-39
-11
1
2
0
1
5
11
18
21
18
14
12
10
5
-2
-5
-1
3
0
-10
-19
-24
-25
-17
1
22
34
37
36
32
29
28
26
21
13
5
2
3
10
21
31
35
35
31
19
4
-2
-3
-4
-8
-13
-21
-34
-43
-41
-36
-36
-38
-40
-43
-45
-47
-45
-40
-32
-20
-4
11
26
37
41
39
34
25
16
6
3
3
4
4
7
14
19
16
10
5
1
-3
-8
-9
-8
-4
1
11
25
40
58
78
89
82
55
21
-8
-32
-53
-65
-67
-62
-55
-47
-43
-43
-39
-33
-26
-17
-3
8
16
26
35
38
37
40
46
40
22
0
-18
-29
-35
-41
-46
-48
-45
-34
-21
-12
-4
7
20
24
22
15
6
1
5
13
13
9
10
13
16
22
24
21
17
14
9
-3
-17
-21
-12
4
15
17
14
8
-3
-20
-30
-30
-25
-18
-14
-13
-8
-3
0
0
-7
-14
-16
-19
-23
-26
-24
-22
-15
0
18
31
40
49
58
60
53
43
37
35
34
35
33
24
9
-2
-7
-12
-23
-37
-45
-46
-40
-36
-41
-46
-44
-36
-22
-4
8
12
7
2
5
11
13
16
23
31
34
28
17
5
-9
-22
-28
-28
-18
7
34
43
32
7
-21
-42
-55
-63
-72
-81
-80
-70
-60
-52
-40
-24
-11
-3
3
13
25
33
35
39
54
72
86
100
108
104
90
72
56
41
27
15
9
5
-3
-14
-22
-23
-19
-17
-19
-24
-28
-27
-25
-27
-28
-26
-24
-22
-21
-24
-28
-28
-25
-20
-13
-1
11
21
29
37
43
42
38
35
29
19
7
-6
-20
-35
-48
-59
-65
-64
-56
-46
-36
-29
-24
-21
-15
-10
0
14
25
29
29
28
27
30
38
48
58
70
83
97
107
94
61
27
6
-5
-19
-37
-57
-72
-80
-91
-111
-129
-136
-138
-140
-138
-128
-110
-90
-65
-35
-8
14
45
90
131
147
145
138
132
125
114
96
72
46
26
15
8
2
-6
-16
-23
-24
-20
-17
-15
-9
2
16
30
39
44
47
42
29
14
1
-3
-2
0
6
24
43
45
25
-1
-22
-39
-58
-78
-91
-94
-94
-89
-78
-66
-55
-37
-15
0
3
2
0
-11
-34
-51
-53
-53
-48
-33
-21
-23
-32
-38
-36
-30
-21
-11
1
19
43
75
110
142
162
160
144
118
87
56
32
13
0
-20
-52
-78
-86
-82
-73
-60
-48
-39
-32
-15
18
48
62
67
67
60
48
39
39
40
33
20
6
-8
-29
-53
-66
-69
-73
-79
-82
-76
-62
-46
-31
-17
-3
12
28
41
51
56
53
44
34
28
25
20
14
13
14
14
15
15
6
-9
-24
-33
-39
-46
-49
-45
-36
-26
-16
-8
-6
-4
0
0
-7
-14
-16
-14
-10
-7
-7
-7
-6
-3
3
14
28
48
72
89
87
72
52
30
5
-15
-29
-37
-38
-33
-27
-25
-27
-29
-31
-33
-33
-30
-21
-5
10
19
22
23
24
27
31
32
31
28
28
36
54
72
77
63
40
17
-9
-43
-70
-82
-85
-92
-104
-110
-102
-86
-69
-56
-46
-34
-21
-7
4
12
20
28
36
45
50
50
54
69
98
121
127
119
96
58
19
-5
-21
-38
-60
-78
-90
-97
-100
-98
-90
-80
-70
-55
-35
-15
1
18
37
55
66
69
68
67
68
72
74
71
70
71
62
44
24
2
-20
-37
-45
-50
-52
-43
-32
-32
-47
-68
-84
-88
-81
-63
-40
-23
-11
3
22
39
45
41
33
36
57
77
78
59
29
3
-9
-9
-8
-12
-19
-23
-23
-26
-31
-30
-20
-13
-8
0
9
17
22
23
18
7
-6
-15
-16
-14
-17
-23
-26
-28
-29
-32
-29
-15
14
53
82
79
53
32
23
14
1
-9
-16
-23
-25
-17
-3
2
-6
-20
-24
-16
-4
-5
-21
-38
-43
-41
-38
-36
-29
-18
-10
-1
15
34
48
57
60
61
58
44
27
18
14
18
35
51
36
-11
-56
-76
-80
-78
-70
-51
-29
-14
2
22
35
43
50
52
46
38
34
34
26
12
1
-7
-14
-21
-31
-42
-48
-48
-41
-30
-16
3
25
34
29
19
5
-10
-27
-42
-49
-49
-41
-26
-9
-3
-8
-14
-21
-26
-24
-17
-9
0
13
29
43
54
59
67
77
80
78
72
63
53
49
46
40
34
38
51
56
36
-4
-44
-69
-87
-112
-146
-166
-162
-144
-118
-87
-55
-23
4
25
37
42
49
59
74
89
98
100
94
81
56
24
2
0
18
35
26
-1
-33
-67
-102
-128
-140
-142
-125
-91
-57
-35
-26
-23
-16
1
26
52
75
92
95
84
68
52
36
30
35
43
42
24
2
-10
-16
-19
-20
-21
-21
-17
4
41
65
62
49
39
31
19
3
-10
-25
-37
-35
-20
-8
-7
-13
-19
-22
-26
-25
-17
-10
-9
-15
-22
-24
-26
-34
-39
-35
-22
-6
3
4
0
-5
-6
-5
-3
-4
-5
-3
0
-1
-2
4
17
29
38
60
92
109
100
77
46
13
-12
-28
-43
-70
-109
-138
-148
-146
-139
-120
-90
-56
-22
17
60
91
110
131
152
160
149
123
84
32
-9
-30
-39
-47
-51
-50
-48
-45
-34
-9
16
27
22
12
4
1
-2
-15
-34
-33
-3
30
45
36
7
-31
-58
-56
-31
18
83
131
141
116
69
25
0
-16
-39
-77
-125
-163
-179
-185
-191
-184
-148
-90
-22
39
79
95
96
79
53
33
22
20
36
61
71
58
40
35
40
43
39
32
24
19
20
32
63
109
139
120
64
4
-46
-85
-108
-118
-122
-122
-116
-105
-83
-53
-13
32
65
74
64
49
41
35
30
26
16
-3
-24
-32
-31
-36
-50
-61
-59
-53
-47
-34
-14
5
23
42
62
76
82
87
83
63
44
35
24
3
-18
-27
-28
-35
-43
-36
3
72
128
114
35
-45
-98
-135
-170
-202
-212
-201
-184
-167
-146
-109
-53
14
83
137
152
136
118
115
121
120
115
113
104
79
50
35
37
44
36
22
22
33
40
34
20
10
12
17
12
-8
-34
-60
-75
-75
-68
-59
-44
-33
-40
-48
-38
-17
-3
-6
-21
-36
-48
-51
-39
-16
0
1
-11
-37
-60
-66
-58
-51
-57
-58
-42
-14
23
67
96
99
87
67
49
41
38
35
42
66
86
91
93
99
96
71
38
10
-9
-24
-29
-27
-25
-29
-46
-76
-109
-131
-131
-114
-94
-78
-68
-66
-72
-79
-76
-40
23
76
96
92
78
67
58
53
50
48
48
52
58
50
28
15
17
21
20
16
3
-18
-36
-43
-49
-60
-60
-33
16
63
86
88
82
74
63
53
40
12
-30
-73
-109
-138
-152
-147
-135
-116
-86
-50
-21
7
38
54
55
56
55
52
55
68
72
56
16
-34
-57
-43
-20
-22
-57
-94
-109
-104
-83
-53
-20
11
37
52
51
44
44
57
85
116
139
151
146
124
99
79
61
38
13
-6
-14
-10
3
17
19
10
-9
-39
-71
-91
-91
-84
-106
-165
-213
-220
-199
-161
-116
-85
-69
-49
-9
43
78
75
46
17
11
24
45
72
112
163
193
185
157
119
74
37
11
-15
-50
-86
-97
-80
-58
-33
1
37
62
75
80
77
77
84
85
59
12
-36
-75
-107
-111
-83
-61
-62
-73
-81
-74
-58
-39
-18
-3
-4
-17
-21
-10
0
-2
-27
-64
-87
-80
-47
-7
30
66
86
82
67
56
47
40
44
66
87
101
154
262
325
283
176
40
-102
-207
-261
-296
-329
-348
-331
-292
-246
-175
-76
12
64
82
84
94
113
130
135
135
137
142
138
123
97
62
28
5
-8
-7
7
19
23
34
53
60
50
24
-11
-44
-59
-56
-48
-58
-85
-111
-124
-128
-127
-124
-114
-93
-55
-6
34
55
71
92
106
103
86
64
50
46
44
42
40
32
12
-22
-57
-74
-83
-100
-117
-100
-48
15
84
149
181
167
123
59
-19
-88
-133
-161
-175
-164
-123
-64
0
64
116
138
131
114
88
48
0
-46
-83
-105
-108
-95
-71
-38
1
44
81
98
95
75
42
14
9
26
49
73
102
132
149
138
95
39
-14
-68
-125
-175
-203
-202
-178
-130
-66
-20
-16
-35
-55
-69
-71
-59
-40
-25
-16
-7
2
11
24
47
62
61
53
64
96
117
113
98
84
74
64
51
42
47
70
94
102
90
54
-6
-75
-121
-138
-133
-115
-95
-77
-63
-62
-75
-91
-105
-118
-120
-103
-78
-54
-24
32
116
182
206
193
149
95
55
30
7
-22
-66
-110
-127
-113
-74
-24
6
6
0
-4
-14
-23
-16
12
74
164
233
252
222
144
35
-65
-139
-180
-183
-155
-116
-72
-17
31
53
42
15
-14
-29
-9
41
93
127
140
128
89
31
-30
-101
-184
-252
-282
-273
-218
-122
-26
38
75
90
95
96
95
97
101
101
88
67
49
29
1
-22
-27
-16
-6
-10
-18
-9
19
50
66
57
31
15
31
69
91
75
27
-51
-144
-205
-221
-221
-218
-202
-168
-122
-35
106
218
240
202
148
100
55
9
-31
-49
-38
-13
8
22
28
28
20
4
-13
-41
-74
-86
-68
-36
11
79
140
170
173
178
190
175
127
69
-5
-115
-222
-285
-305
-291
-238
-152
-54
31
103
159
169
125
56
-12
-72
-116
-134
-122
-83
-40
-15
-1
16
42
67
78
78
85
121
183
230
229
188
114
15
-74
-140
-188
-223
-243
-240
-210
-156
-66
57
153
181
163
140
130
122
109
94
65
13
-43
-82
-107
-121
-113
-75
-25
10
25
18
-14
-68
-125
-169
-190
-170
-105
-16
70
136
174
193
189
131
23
-67
-98
-92
-77
-58
-34
-8
22
50
59
48
43
63
100
139
171
180
158
106
35
-30
-80
-129
-181
-210
-200
-164
-111
-42
17
49
59
44
9
-15
-12
12
25
2
-36
-67
-79
-54
-2
22
5
-18
-14
21
62
90
100
88
58
33
26
34
52
72
80
67
44
12
-27
-60
-67
-50
-24
-10
-15
-23
-27
-30
-36
-59
-102
-141
-151
-119
-54
10
36
26
11
7
2
-16
-56
-114
-156
-159
-127
-65
9
62
88
111
138
161
175
187
207
239
259
242
197
143
89
38
-3
-34
-55
-95
-167
-232
-252
-233
-199
-174
-164
-156
-126
-50
64
155
192
199
185
154
115
76
42
14
-18
-52
-75
-84
-81
-68
-56
-50
-40
-10
37
75
91
89
64
30
15
14
-9
-57
-102
-126
-134
-136
-108
-40
19
34
27
27
45
59
46
11
-32
-80
-107
-104
-90
-75
-50
-9
37
67
85
104
111
99
81
69
79
105
132
148
132
75
1
-61
-105
-141
-178
-206
-218
-211
-169
-98
-32
15
48
71
86
95
93
81
61
43
38
46
58
79
99
90
63
50
57
57
45
33
19
-18
-87
-150
-175
-174
-170
-164
-129
-58
18
72
93
79
52
32
15
0
-7
-17
-43
-78
-98
-95
-78
-55
-15
38
76
92
102
112
122
136
166
200
215
203
164
107
33
-75
-208
-298
-327
-321
-285
-220
-137
-51
32
100
131
131
122
107
81
50
32
30
53
89
101
80
46
7
-34
-69
-89
-100
-113
-119
-99
-53
-1
58
119
143
121
78
28
-25
-57
-42
16
65
55
6
-36
-67
-106
-152
-173
-162
-139
-88
13
124
189
201
169
105
32
-25
-65
-94
-118
-120
-99
-71
-37
5
35
39
25
12
11
16
26
44
65
82
92
96
93
76
51
29
18
28
55
72
59
22
-18
-67
-132
-183
-195
-182
-165
-139
-94
-38
5
22
17
11
26
65
111
140
141
122
92
50
0
-42
-69
-86
-85
-54
-3
33
41
27
6
-6
-12
-17
-16
-6
12
34
58
72
66
45
20
-8
-39
-65
-78
-82
-73
-34
31
80
93
85
57
9
-36
-66
-85
-103
-114
-107
-86
-56
-9
56
106
119
108
86
64
52
46
33
17
3
-11
-27
-41
-52
-60
-62
-63
-64
-57
-42
-29
-19
-6
14
38
53
58
64
72
72
63
46
23
0
-19
-33
-45
-55
-60
-55
-39
-16
2
5
0
-5
-4
0
9
25
35
35
32
27
12
-5
-14
-10
-2
1
2
10
15
13
10
7
0
-13
-17
-15
-19
-27
-27
-20
-21
-32
-45
-48
-39
-21
0
16
30
44
55
60
60
55
41
16
-11
-30
-39
-40
-37
-30
-23
-24
-28
-20
-3
13
23
25
21
14
11
12
14
15
16
21
25
29
32
30
21
9
-4
-20
-36
-46
-51
-55
-60
-56
-41
-22
-6
6
14
22
31
40
44
40
35
35
41
45
39
32
29
21
5
-11
-17
-16
-15
-16
-20
-26
-31
-34
-38
-41
-42
-40
-38
-36
-35
-33
-27
-10
15
32
35
32
27
20
8
-3
-10
-9
-3
3
9
14
15
8
0
-5
-9
-12
-13
-5
8
19
25
26
23
21
24
29
34
35
32
24
15
14
16
10
-2
-21
-42
-59
-67
-68
-62
-51
-40
-30
-17
1
22
34
37
32
25
18
13
8
2
-1
0
7
17
18
15
12
11
8
-2
-15
-20
-20
-19
-20
-21
-17
-11
-5
2
11
19
26
32
33
31
30
26
18
6
-2
-10
-19
-26
-28
-28
-32
-42
-49
-46
-34
-23
-14
-8
-2
1
6
12
16
17
20
24
26
23
22
23
19
12
7
7
6
2
-1
-5
-10
-14
-16
-18
-18
-14
-8
-2
1
4
9
13
14
18
23
27
27
26
26
21
13
5
0
-6
-12
-16
-18
-18
-22
-28
-31
-35
-43
-42
-34
-22
-8
4
13
20
29
42
57
67
68
60
45
23
0
-16
-21
-22
-25
-30
-33
-30
-24
-22
-23
-26
-27
-25
-23
-23
-20
-16
-13
-3
14
28
30
27
25
25
22
16
8
0
-7
-10
-12
-16
-22
-26
-24
-19
-16
-13
-8
0
7
14
19
23
29
34
36
32
26
24
23
19
12
4
-4
-13
-17
-21
-27
-33
-33
-31
-27
-23
-20
-15
-9
-4
1
4
7
14
28
38
38
32
28
23
12
4
0
-2
-7
-12
-17
-23
-29
-28
-18
-11
-9
-7
-3
0
3
9
18
30
43
49
42
29
16
3
-10
-24
-33
-36
-37
-36
-32
-29
-30
-30
-25
-16
-5
1
5
7
9
9
8
8
9
13
23
36
45
48
50
55
56
49
34
17
0
-21
-41
-54
-65
-73
-77
-80
-80
-71
-57
-40
-19
0
17
31
43
53
59
57
50
42
33
24
15
7
0
-6
-6
-5
-8
-16
-21
-18
-9
-2
1
6
10
13
17
21
22
21
22
23
20
11
4
0
-5
-15
-25
-27
-22
-20
-21
-23
-25
-24
-20
-16
-14
-12
-7
-1
2
4
8
15
23
27
25
20
17
14
6
-10
-28
-37
-40
-43
-39
-31
-24
-20
-11
7
23
27
25
24
24
24
25
27
26
21
17
16
15
12
10
10
9
6
2
-4
-8
-7
-4
-7
-16
-23
-23
-20
-18
-18
-18
-16
-13
-10
-5
0
2
7
16
24
28
30
36
36
26
13
5
-1
-10
-21
-30
-37
-39
-29
-7
11
19
22
21
14
3
-6
-15
-22
-26
-24
-23
-24
-25
-23
-20
-17
-13
-4
9
22
31
35
30
18
8
5
4
3
4
8
9
9
10
13
16
21
27
30
26
19
13
8
1
-7
-14
-17
-19
-21
-23
-26
-28
-27
-26
-28
-30
-29
-25
-19
-14
-9
-6
-2
5
19
29
31
32
35
36
32
27
22
15
6
3
4
1
-7
-16
-23
-24
-22
-20
-20
-20
-19
-17
-15
-14
-12
-6
-1
0
-1
0
2
4
10
22
33
36
33
25
11
0
-5
-4
-6
-13
-21
-26
-29
-30
-28
-24
-18
-11
2
20
31
33
33
32
29
29
29
28
26
27
24
15
0
-14
-25
-31
-32
-32
-29
-23
-14
-2
10
18
26
34
38
36
29
20
11
1
-7
-22
-47
-71
-84
-88
-92
-95
-89
-71
-51
-33
-15
1
16
27
39
51
57
59
64
69
70
66
61
58
51
41
30
22
16
11
5
-2
-12
-18
-14
0
14
22
22
16
8
0
-11
-24
-35
-40
-41
-41
-41
-40
-36
-35
-36
-36
-34
-26
-12
4
19
33
49
59
56
42
23
2
-16
-29
-37
-45
-55
-61
-56
-44
-30
-19
-11
-4
-1
2
13
27
38
43
46
45
36
25
17
14
12
11
9
8
5
3
5
9
14
19
19
12
1
-5
-8
-12
-16
-17
-20
-25
-29
-30
-29
-29
-27
-18
-6
1
4
10
18
23
24
25
24
23
25
30
34
34
30
25
19
12
9
10
10
3
-4
-14
-27
-38
-38
-31
-26
-31
-38
-37
-33
-27
-19
-12
-6
0
8
17
20
19
18
16
11
4
1
0
0
1
3
2
-1
-7
-14
-20
-20
-15
-9
-4
0
2
4
4
7
17
32
48
54
45
26
7
-4
-13
-23
-32
-37
-42
-54
-69
-75
-70
-60
-49
-36
-24
-10
5
24
46
60
65
67
65
62
59
59
59
53
47
43
41
36
26
12
-1
-12
-19
-21
-25
-34
-44
-50
-52
-53
-51
-49
-45
-39
-26
-11
0
6
10
12
11
9
9
10
11
11
11
7
1
-3
-3
1
8
16
25
32
34
34
34
34
32
30
28
22
9
-4
-14
-21
-31
-48
-63
-69
-68
-61
-53
-48
-45
-38
-21
7
35
53
61
59
50
38
26
17
10
3
-6
-15
-19
-19
-19
-23
-28
-32
-33
-32
-29
-26
-27
-28
-24
-15
-5
2
11
22
34
46
58
74
96
116
122
114
89
54
23
3
-10
-18
-23
-31
-42
-54
-70
-94
-110
-112
-107
-102
-96
-85
-70
-53
-33
-10
8
20
31
47
65
75
75
71
67
64
62
58
52
42
27
11
1
-2
-4
-6
-8
-8
-5
-2
-3
-7
-11
-15
-16
-10
-1
3
4
3
1
-1
-4
-4
-6
-13
-16
-15
-15
-23
-35
-41
-38
-31
-15
12
40
53
54
41
18
-1
-10
-12
-15
-21
-25
-29
-35
-41
-48
-53
-53
-49
-40
-28
-17
-4
9
22
35
41
43
45
47
48
48
46
42
45
57
61
54
42
27
8
-11
-22
-26
-30
-35
-37
-37
-38
-38
-35
-30
-25
-21
-12
0
7
8
7
7
6
9
16
25
28
20
7
0
-5
-13
-23
-27
-27
-24
-21
-19
-18
-12
0
15
24
25
22
19
20
26
29
26
25
34
57
84
99
93
67
29
-7
-32
-49
-65
-82
-94
-98
-100
-104
-106
-101
-92
-84
-76
-65
-51
-35
-16
3
27
51
75
98
117
124
115
97
79
61
40
21
13
11
6
-6
-15
-12
-3
-2
-12
-22
-25
-25
-20
-13
-8
-3
3
9
9
5
6
14
18
13
1
-7
-14
-19
-23
-26
-26
-25
-22
-19
-18
-16
-10
-2
4
7
7
5
6
16
32
43
49
50
48
40
30
24
18
3
-16
-32
-48
-66
-82
-87
-85
-85
-87
-83
-70
-56
-46
-38
-27
-9
16
40
55
61
64
67
66
62
56
50
44
37
29
17
6
0
-1
2
8
19
34
50
61
60
51
37
22
11
0
-11
-25
-35
-45
-58
-71
-79
-84
-87
-85
-78
-67
-58
-49
-37
-21
-4
10
27
50
70
88
101
107
107
103
96
87
77
67
61
58
52
32
-5
-44
-71
-89
-109
-137
-158
-161
-150
-134
-116
-94
-73
-53
-33
-15
-2
5
16
35
52
60
62
62
61
55
44
34
29
32
43
53
57
58
59
58
55
50
46
44
43
44
47
50
42
23
3
-10
-24
-41
-60
-74
-82
-88
-97
-106
-105
-97
-83
-71
-69
-66
-54
-37
-16
9
33
54
77
110
147
165
159
145
127
103
77
56
38
18
-4
-24
-39
-53
-70
-87
-104
-120
-136
-150
-154
-146
-130
-110
-86
-63
-40
-20
0
21
37
47
57
73
93
105
106
101
92
78
63
52
47
37
21
7
0
-4
-11
-21
-28
-32
-36
-38
-41
-41
-37
-28
-18
-10
-2
7
12
12
16
25
33
37
39
39
35
29
24
20
16
9
2
0
-1
-3
-5
-2
4
12
13
6
-2
-10
-15
-15
-15
-22
-31
-42
-52
-56
-51
-44
-31
-12
2
4
0
-2
-2
-4
-9
-14
-6
19
46
62
65
53
29
6
-13
-34
-59
-82
-92
-90
-82
-69
-55
-43
-33
-22
-9
3
12
16
20
28
42
54
59
61
62
59
48
32
16
2
-7
-9
-4
0
0
2
12
28
41
51
60
63
60
57
58
61
59
49
36
24
14
9
8
5
-6
-20
-30
-36
-45
-61
-75
-79
-71
-57
-45
-35
-28
-22
-21
-30
-51
-66
-65
-50
-19
20
48
55
54
50
40
25
11
-1
-17
-37
-55
-66
-72
-74
-71
-64
-57
-50
-41
-33
-28
-24
-17
-3
15
33
50
68
90
118
137
139
132
122
107
88
69
52
36
22
9
-3
-19
-39
-56
-59
-51
-44
-44
-45
-41
-34
-28
-24
-22
-19
-14
-12
-15
-18
-20
-20
-22
-29
-37
-41
-40
-36
-28
-19
-12
-8
-1
8
17
20
19
21
27
39
50
57
63
76
91
91
77
61
43
27
22
25
28
20
0
-25
-47
-67
-87
-103
-110
-110
-112
-116
-116
-112
-106
-98
-88
-74
-53
-26
7
43
68
79
83
84
85
84
79
74
69
64
55
44
32
20
8
0
-5
-7
-7
-6
-5
-4
-1
8
27
41
43
36
26
16
14
18
23
27
29
30
30
25
16
7
-4
-20
-36
-50
-60
-66
-68
-68
-65
-64
-64
-59
-52
-46
-42
-35
-22
-4
10
19
24
30
37
40
37
29
25
26
30
36
39
37
32
28
31
33
30
24
17
8
-7
-26
-42
-60
-80
-95
-101
-104
-104
-97
-86
-78
-74
-66
-42
-13
9
25
40
57
70
78
84
90
94
95
95
96
97
100
100
95
81
61
38
16
2
-5
-13
-26
-37
-41
-40
-40
-42
-44
-44
-45
-48
-52
-53
-45
-29
-9
10
19
18
15
11
5
-1
-6
-8
-2
11
16
1
-25
-51
-71
-81
-78
-66
-54
-47
-44
-44
-47
-49
-42
-28
-11
4
20
43
65
79
87
92
95
93
86
76
57
33
12
0
-10
-15
-13
-8
-6
-8
-12
-15
-11
-4
2
9
17
23
25
26
25
25
22
17
12
7
-2
-13
-17
-13
-9
-12
-17
-21
-28
-42
-57
-64
-64
-62
-53
-35
-19
-11
-11
-17
-26
-33
-34
-31
-23
-9
6
22
32
36
37
37
39
39
39
43
48
48
47
46
44
43
41
37
25
7
-5
-8
-12
-24
-46
-65
-73
-70
-64
-63
-65
-61
-50
-37
-24
-11
4
17
32
47
57
62
69
79
89
88
79
67
51
29
4
-15
-30
-44
-55
-64
-71
-76
-75
-68
-57
-47
-38
-26
-11
3
14
22
31
45
57
59
60
62
57
45
31
18
5
-9
-22
-31
-37
-46
-55
-53
-39
-23
-15
-13
-8
-1
4
9
14
15
11
11
13
10
4
3
9
16
13
7
7
7
13
31
46
42
28
12
-2
-12
-15
-11
-13
-27
-44
-55
-65
-76
-84
-86
-84
-80
-76
-68
-53
-36
-20
0
23
42
56
63
70
82
95
103
106
109
111
109
100
85
65
42
26
20
19
13
0
-18
-34
-45
-55
-64
-72
-75
-73
-66
-62
-59
-53
-42
-28
-19
-15
-11
-4
2
9
16
21
23
25
25
21
13
4
-1
-8
-15
-18
-17
-18
-20
-22
-25
-31
-37
-37
-27
-13
5
30
53
64
64
59
51
42
37
38
40
37
24
7
-7
-21
-38
-58
-75
-85
-88
-88
-90
-87
-77
-61
-44
-25
-4
21
48
77
107
130
142
153
166
172
161
132
94
51
2
-37
-64
-84
-103
-121
-134
-141
-144
-138
-126
-117
-111
-97
-74
-49
-24
8
46
78
94
99
99
94
79
61
44
30
14
-3
-20
-31
-35
-36
-36
-33
-23
-10
-1
1
3
7
13
20
31
45
62
88
117
138
144
130
102
65
26
-6
-29
-49
-72
-97
-119
-133
-142
-145
-145
-140
-132
-119
-96
-64
-27
6
33
59
90
116
131
134
128
113
95
73
48
23
2
-11
-16
-14
-16
-29
-42
-50
-59
-74
-93
-102
-97
-80
-50
-10
23
45
59
62
55
42
30
23
18
11
3
-3
-9
-18
-34
-49
-58
-61
-57
-48
-37
-22
-5
17
47
72
85
89
90
92
92
89
79
67
56
44
28
10
-9
-29
-40
-46
-52
-62
-68
-65
-53
-38
-22
-7
0
2
3
9
20
27
26
20
9
-6
-21
-30
-34
-39
-45
-48
-43
-27
-14
-21
-38
-47
-44
-31
-10
13
38
56
64
65
59
49
39
27
12
-5
-20
-29
-36
-46
-60
-70
-74
-75
-71
-64
-55
-44
-24
5
31
46
54
60
67
72
75
78
81
86
92
93
89
83
75
63
51
36
20
5
-8
-18
-25
-40
-63
-81
-85
-79
-65
-46
-33
-30
-32
-33
-38
-43
-45
-42
-36
-29
-27
-26
-21
-14
-12
-13
-17
-22
-25
-24
-21
-18
-12
0
17
32
39
43
45
48
48
48
49
53
62
73
80
77
68
61
52
38
23
12
2
-13
-28
-43
-62
-86
-102
-107
-105
-101
-90
-76
-61
-44
-24
-8
2
17
39
62
76
84
93
96
86
67
48
33
24
16
4
-12
-28
-39
-47
-50
-48
-42
-38
-37
-38
-38
-36
-32
-25
-16
-6
4
12
18
25
31
35
36
33
30
27
22
12
1
-4
-1
3
8
9
4
-5
-11
-12
-5
9
26
35
31
16
1
-6
-9
-13
-22
-36
-49
-59
-66
-71
-72
-67
-55
-42
-30
-15
5
34
64
88
94
86
74
66
61
54
44
28
9
-7
-22
-31
-39
-49
-56
-54
-41
-18
17
54
66
50
23
0
-16
-29
-39
-46
-53
-60
-59
-51
-43
-40
-43
-44
-36
-24
-7
13
29
37
41
43
48
55
62
69
85
112
133
138
129
106
70
32
2
-18
-37
-59
-79
-93
-104
-112
-116
-116
-112
-106
-98
-84
-69
-56
-45
-26
2
30
48
60
67
72
74
73
71
65
59
54
49
42
30
18
8
0
-3
-1
5
8
8
2
-15
-40
-53
-51
-41
-27
-11
1
5
0
-14
-27
-30
-21
-4
7
3
-14
-33
-47
-61
-79
-92
-94
-87
-71
-48
-30
-19
-7
19
60
95
112
113
101
83
68
61
58
58
64
71
73
67
49
24
0
-18
-27
-29
-31
-32
-32
-35
-38
-34
-21
-2
12
20
23
22
21
20
16
8
0
-4
-8
-18
-37
-54
-59
-57
-56
-56
-55
-52
-47
-40
-34
-31
-30
-23
-9
10
27
37
46
66
100
117
104
77
50
24
3
-13
-27
-40
-52
-62
-69
-73
-76
-73
-64
-55
-46
-33
-16
8
39
69
89
91
80
66
51
34
20
17
21
17
1
-14
-23
-25
-25
-25
-24
-20
-13
-8
-9
-14
-16
-12
0
22
40
43
34
16
-6
-26
-39
-47
-48
-39
-29
-26
-26
-24
-19
-14
-9
-5
0
9
16
17
14
18
41
73
100
122
134
126
97
62
27
-11
-56
-90
-107
-117
-128
-138
-133
-115
-96
-77
-52
-25
-5
10
24
37
51
65
76
80
76
72
73
75
81
91
94
88
76
57
29
-1
-26
-45
-65
-89
-105
-108
-103
-93
-80
-70
-62
-53
-40
-25
-13
-5
5
20
38
50
52
48
42
40
41
43
44
45
51
58
61
62
54
28
-3
-26
-43
-68
-98
-116
-116
-111
-106
-96
-82
-68
-54
-36
-8
16
38
62
85
103
108
107
102
89
67
45
28
16
3
-13
-25
-27
-21
-9
0
2
4
7
11
14
12
6
-1
-5
-6
-6
-8
-17
-32
-45
-50
-46
-37
-26
-13
-1
11
23
25
16
3
-8
-18
-30
-38
-41
-39
-32
-18
1
18
32
43
49
50
48
44
36
25
13
2
-8
-15
-25
-39
-52
-54
-52
-50
-48
-41
-32
-24
-11
10
33
52
65
72
76
76
73
71
67
54
36
21
6
-10
-29
-40
-45
-54
-67
-76
-67
-45
-31
-28
-27
-24
-20
-18
-19
-20
-14
-1
13
24
34
46
54
54
42
22
6
1
5
26
66
101
114
101
59
1
-44
-72
-93
-114
-131
-133
-118
-91
-50
-4
18
15
9
11
18
21
19
17
18
25
27
20
12
8
4
5
13
24
32
33
31
26
19
10
0
-2
4
9
4
-2
-5
-2
2
2
-3
-10
-13
-16
-17
-11
1
7
2
-4
-9
-13
-16
-17
-18
-19
-18
-10
0
6
10
11
12
12
12
17
28
35
34
23
2
-22
-41
-49
-52
-54
-54
-49
-41
-30
-17
-3
10
23
36
45
48
42
33
26
18
6
-4
-8
-6
4
17
25
21
11
8
18
33
43
37
23
15
12
2
-19
-46
-62
-62
-52
-43
-41
-41
-35
-31
-26
-18
-14
-11
-3
4
12
28
56
84
87
60
25
1
-11
-17
-16
-9
-2
3
6
6
7
6
5
7
15
22
19
8
-2
-14
-27
-39
-49
-55
-54
-46
-31
-9
13
29
30
22
15
6
-3
-12
-16
-21
-32
-39
-36
-29
-20
-8
8
27
43
50
52
48
39
28
18
11
4
0
-3
-1
4
6
0
-5
0
17
26
18
6
1
3
9
12
4
-9
-21
-31
-42
-47
-41
-29
-18
-8
-4
-5
-12
-23
-35
-39
-33
-20
1
30
53
62
70
79
77
59
35
11
-9
-27
-35
-40
-47
-53
-52
-46
-39
-34
-26
-10
6
20
33
42
45
46
49
45
32
20
19
23
23
11
-7
-25
-37
-42
-44
-47
-49
-50
-47
-42
-33
-18
0
16
27
32
40
54
65
65
49
22
0
-11
-18
-30
-42
-50
-52
-43
-23
-1
12
16
14
9
1
-5
-7
-7
-9
-10
-5
-1
2
7
15
23
24
17
10
8
5
-1
-9
-14
-15
-6
7
16
14
7
1
-6
-16
-23
-23
-20
-12
-1
4
7
12
25
41
44
34
24
18
11
5
2
2
2
2
0
-8
-19
-27
-30
-29
-26
-19
-7
1
2
0
-2
-2
2
16
31
34
25
14
5
-4
-17
-28
-36
-42
-41
-34
-29
-28
-25
-12
5
21
35
46
48
47
46
43
34
23
16
11
3
-10
-20
-21
-20
-19
-20
-24
-27
-25
-24
-31
-37
-30
-13
-3
-8
-15
-16
-15
-16
-15
-12
-12
-8
8
31
45
49
45
37
29
27
32
42
54
67
73
65
44
16
-8
-27
-40
-50
-57
-59
-56
-51
-46
-41
-21
15
55
76
65
41
20
0
-22
-42
-58
-69
-77
-77
-73
-65
-53
-36
-19
-3
6
14
21
29
32
29
22
20
30
47
52
41
28
17
6
2
6
12
9
-1
-18
-37
-45
-29
9
53
81
86
69
38
8
-9
-18
-15
2
26
38
31
16
10
20
34
36
14
-30
-74
-110
-139
-164
-180
-166
-125
-80
-40
2
46
81
103
110
105
87
67
54
43
22
-2
-19
-26
-29
-36
-39
-21
12
40
54
48
22
-10
-37
-55
-64
-66
-66
-56
-28
6
35
52
67
84
96
101
95
79
57
38
25
15
5
-7
-19
-26
-32
-41
-50
-52
-46
-32
5
63
98
89
56
6
-60
-115
-139
-139
-136
-139
-135
-114
-84
-47
-10
14
25
35
52
72
84
94
108
111
90
51
10
-20
-28
-10
11
16
13
17
29
32
19
-4
-25
-34
-29
-16
2
25
47
63
66
55
28
-12
-54
-85
-103
-102
-76
-40
-15
-7
-11
-18
-16
-2
13
24
31
31
18
-8
-41
-61
-53
-23
7
31
50
67
76
73
51
14
-11
-7
12
31
42
44
33
21
9
-7
-30
-52
-71
-83
-80
-60
-33
-19
-16
-1
31
59
65
58
59
69
85
100
96
69
39
16
-12
-58
-114
-158
-182
-195
-201
-192
-155
-96
-28
40
102
140
157
165
154
118
79
52
33
14
0
-7
-14
-23
-35
-45
-47
-40
-36
-36
-36
-31
-22
-15
-8
10
38
61
67
70
86
102
102
89
69
39
3
-34
-70
-101
-130
-153
-170
-175
-159
-126
-83
-29
31
99
169
210
211
182
113
14
-70
-119
-145
-174
-201
-191
-130
-47
27
83
116
138
154
152
129
107
111
137
160
155
121
63
-25
-136
-217
-248
-250
-237
-211
-171
-115
-49
28
106
145
134
105
82
65
50
41
44
56
69
76
70
58
44
21
-1
-22
-58
-117
-177
-203
-196
-179
-155
-111
-48
14
70
114
130
111
74
42
17
-3
-7
7
28
38
34
31
34
35
34
34
33
37
59
90
99
77
47
27
9
-20
-40
-14
50
95
76
19
-30
-67
-119
-204
-281
-316
-317
-281
-194
-82
15
92
163
224
239
208
170
130
71
5
-45
-77
-90
-84
-60
-16
34
62
57
44
46
60
82
108
117
90
39
7
21
52
70
74
46
-26
-108
-164
-193
-218
-252
-268
-239
-148
-10
107
167
182
176
161
132
95
68
58
52
27
-17
-67
-112
-145
-159
-158
-149
-130
-97
-63
-33
2
63
146
216
248
249
216
157
98
57
23
-24
-80
-114
-122
-112
-92
-74
-74
-86
-89
-79
-67
-42
15
94
175
245
264
214
123
4
-126
-222
-265
-280
-274
-243
-193
-131
-58
29
124
202
252
269
243
178
102
33
-30
-98
-156
-174
-153
-103
-11
105
206
248
209
108
1
-80
-146
-193
-211
-199
-169
-128
-42
93
198
226
206
160
89
15
-36
-70
-93
-105
-104
-96
-86
-67
-39
-14
-3
0
18
63
108
124
116
108
102
80
38
-9
-60
-117
-156
-159
-127
-55
31
72
57
25
-4
-36
-64
-86
-104
-104
-59
23
109
172
203
192
140
74
16
-36
-89
-127
-139
-129
-101
-65
-35
-11
9
27
45
65
83
88
81
78
81
80
70
70
89
98
79
49
10
-57
-140
-208
-252
-265
-231
-148
-53
13
39
45
48
42
22
-1
-19
-36
-47
-18
64
144
171
160
135
95
45
4
-23
-43
-66
-93
-110
-106
-82
-53
-22
20
56
51
10
-19
-25
-24
-22
-12
17
65
119
166
180
153
97
30
-22
-36
-28
-29
-50
-93
-153
-196
-213
-213
-200
-170
-131
-87
-32
41
128
197
233
238
222
195
163
130
101
69
30
3
12
61
112
122
84
13
-75
-165
-218
-215
-194
-192
-207
-213
-196
-174
-172
-173
-155
-111
-52
18
98
160
190
202
202
193
174
153
134
115
94
82
89
109
126
119
87
45
0
-62
-147
-225
-272
-295
-268
-159
-9
108
172
180
135
66
4
-47
-99
-149
-165
-127
-51
44
133
174
164
129
67
-15
-84
-121
-141
-144
-119
-75
-18
40
80
90
85
75
65
45
12
-14
-22
-17
4
53
110
141
135
101
52
-2
-68
-140
-211
-276
-310
-287
-209
-73
87
187
206
194
175
143
114
107
111
90
37
-15
-52
-83
-117
-149
-167
-166
-152
-111
-32
55
112
119
89
59
52
58
56
41
25
14
13
45
107
148
137
91
32
-41
-113
-161
-183
-192
-199
-181
-121
-44
9
28
31
36
47
68
95
114
126
135
131
95
41
-11
-58
-99
-118
-104
-77
-57
-44
-32
-18
-7
0
5
5
-2
-14
-21
-3
43
82
88
75
57
46
46
46
34
15
-2
-18
-29
-32
-23
1
26
31
9
-35
-89
-125
-134
-112
-54
23
85
118
128
101
27
-54
-108
-129
-136
-147
-150
-119
-53
40
129
168
150
106
58
19
10
29
53
68
67
44
7
-28
-49
-47
-33
-18
1
30
54
57
41
19
1
-8
-16
-25
-35
-50
-72
-84
-81
-73
-62
-46
-24
1
23
38
56
78
100
116
119
107
80
46
21
0
-32
-71
-100
-114
-115
-109
-99
-81
-58
-38
-23
-12
3
24
43
60
84
111
129
130
117
91
52
4
-47
-101
-145
-171
-182
-169
-124
-70
-31
-4
22
66
122
171
186
158
110
57
0
-58
-107
-126
-118
-105
-82
-41
6
42
65
84
93
78
53
29
1
-31
-54
-59
-56
-55
-53
-39
-16
10
31
40
40
38
39
40
37
29
18
7
0
0
1
5
11
18
27
40
54
58
34
-10
-45
-57
-62
-74
-92
-109
-113
-97
-59
-12
20
31
30
26
24
26
35
51
66
72
63
46
30
15
-1
-14
-18
-14
-1
22
55
85
99
77
23
-35
-83
-123
-157
-180
-174
-144
-104
-47
23
75
92
84
67
54
45
34
20
10
7
11
14
16
17
19
19
21
21
19
14
12
12
9
5
4
4
1
0
0
0
-1
0
1
-8
-31
-52
-62
-68
-73
-74
-68
-57
-45
-25
6
32
40
41
43
42
37
32
32
33
32
30
27
22
13
1
-10
-17
-17
-10
-4
-5
-11
-17
-18
-13
-5
-2
-9
-10
10
37
47
41
27
13
12
26
39
32
13
-1
-15
-37
-54
-43
-17
-4
-8
-19
-30
-40
-44
-38
-20
2
19
34
51
55
34
1
-28
-53
-78
-101
-106
-90
-62
-11
58
107
110
85
53
29
24
45
83
111
112
91
55
9
-36
-70
-88
-101
-110
-98
-52
1
44
79
90
63
17
-25
-63
-94
-111
-105
-80
-48
-19
7
30
47
56
60
69
96
139
170
152
79
-5
-72
-124
-174
-216
-230
-209
-163
-92
-6
57
80
75
64
60
64
69
72
77
85
83
70
55
41
21
0
-17
-23
-29
-37
-40
-35
-28
-22
-16
-10
-9
-15
-20
-19
-17
-17
-17
-8
7
25
36
43
48
52
51
44
23
-9
-34
-38
-27
-11
-2
-6
-12
-15
-24
-43
-57
-58
-51
-49
-48
-43
-30
-14
0
11
18
25
33
44
56
57
52
48
43
38
33
28
19
9
2
-4
-14
-25
-31
-35
-38
-39
-37
-32
-22
-10
0
3
2
6
16
25
29
28
31
33
32
30
27
20
10
1
-7
-16
-26
-33
-33
-30
-28
-26
-21
-17
-12
-5
2
5
5
10
16
13
10
15
21
21
12
0
-9
-17
-20
-21
-27
-37
-41
-34
-19
-5
3
11
20
26
26
24
21
21
23
27
31
34
37
39
35
25
14
0
-16
-27
-29
-31
-39
-45
-44
-35
-26
-19
-13
-10
-6
-2
-1
-1
0
6
18
26
29
27
20
10
0
-6
-11
-13
-9
1
10
7
-3
-12
-16
-16
-12
-6
0
2
0
-2
-3
-4
-3
0
-2
-8
-9
-5
0
5
12
20
27
28
23
17
9
1
-2
-6
-15
-25
-32
-36
-38
-35
-27
-13
2
18
34
47
55
59
56
47
34
18
5
-3
-12
-21
-28
-31
-31
-29
-26
-23
-22
-19
-14
-7
0
4
3
2
8
18
21
17
14
12
8
4
1
2
0
-8
-16
-21
-26
-29
-25
-16
-10
-9
-9
-4
0
5
6
8
11
17
26
31
29
25
22
17
12
8
3
-3
-10
-14
-22
-34
-44
-45
-40
-34
-29
-27
-26
-23
-14
0
13
21
31
42
46
41
36
34
33
31
24
16
13
17
25
25
12
-2
-13
-20
-24
-26
-24
-17
-8
-3
-1
-3
-5
-6
-4
-3
-7
-13
-14
-13
-15
-15
-11
-8
-5
-4
-6
-16
-27
-32
-30
-28
-27
-22
-13
-3
12
33
49
55
58
59
55
45
38
31
22
11
5
3
1
-1
-7
-13
-21
-28
-31
-32
-32
-30
-25
-18
-10
-4
0
3
7
13
21
24
21
14
6
0
-4
-6
-8
-9
-9
-9
-10
-16
-23
-22
-10
3
8
5
0
-3
-4
-4
-5
-5
0
8
12
6
0
0
6
13
15
11
3
-3
-5
-3
-5
-10
-13
-13
-12
-11
-9
-4
0
0
0
0
0
5
21
34
37
35
33
31
27
23
18
10
-1
-11
-17
-24
-34
-42
-43
-39
-35
-30
-21
-11
-1
8
18
28
33
37
39
36
27
20
17
13
5
-2
-10
-15
-19
-23
-30
-35
-35
-26
-14
-5
-3
-6
-10
-14
-16
-15
-15
-12
-7
-1
2
5
10
16
21
23
22
21
20
18
14
6
-4
-10
-7
0
7
11
14
19
23
23
19
13
8
9
15
18
16
12
6
1
-4
-10
-16
-21
-25
-26
-30
-37
-42
-38
-30
-25
-21
-16
-9
-3
3
9
12
14
17
24
28
25
19
14
8
1
-4
-7
-10
-13
-16
-19
-22
-23
-19
-11
-6
-3
-1
1
3
4
7
10
12
18
24
26
23
20
18
16
13
13
14
11
3
-4
-12
-22
-33
-38
-36
-32
-28
-20
-9
-1
3
11
25
38
46
52
47
30
10
-2
-10
-21
-33
-43
-50
-54
-51
-44
-38
-32
-16
5
19
24
27
32
39
44
44
38
32
30
31
30
25
19
10
1
-6
-9
-11
-14
-20
-23
-24
-27
-32
-35
-33
-25
-15
-7
-2
0
1
3
5
9
17
25
31
28
20
12
7
2
-3
-9
-13
-15
-15
-16
-19
-24
-25
-21
-17
-17
-13
-7
-1
4
7
8
8
10
14
19
20
19
17
17
15
13
12
10
6
1
-2
-6
-13
-21
-25
-23
-20
-16
-14
-12
-9
-6
-2
2
10
22
32
33
26
18
16
20
24
22
17
11
5
-3
-17
-30
-34
-31
-29
-29
-30
-29
-26
-24
-18
-11
-5
2
13
23
26
26
25
23
20
16
14
12
7
1
-3
-8
-15
-20
-20
-17
-15
-13
-10
-5
0
8
16
21
25
29
30
26
16
8
4
3
0
-9
-19
-22
-22
-22
-24
-30
-32
-27
-19
-11
-5
0
4
8
12
16
19
21
27
33
34
30
25
24
24
22
15
6
0
3
14
16
2
-14
-29
-44
-56
-62
-62
-58
-52
-43
-32
-23
-11
3
14
19
25
32
35
32
26
22
21
22
24
25
22
12
0
-10
-14
-15
-15
-10
-4
0
3
8
12
16
20
20
10
-3
-12
-15
-18
-22
-26
-27
-26
-25
-24
-24
-25
-24
-19
-12
-3
4
11
16
18
20
21
21
21
29
47
60
59
52
44
34
22
12
4
-7
-23
-36
-45
-54
-64
-71
-69
-60
-49
-35
-19
-6
1
8
14
21
30
42
48
42
30
23
24
25
28
31
28
18
7
-6
-22
-32
-32
-30
-30
-31
-30
-24
-21
-19
-13
-6
1
11
22
33
36
31
24
17
9
3
0
-2
-2
-2
-4
-9
-16
-20
-20
-18
-17
-13
-4
8
16
18
17
15
14
14
13
8
1
-4
-9
-15
-20
-25
-26
-23
-16
-11
-11
-16
-18
-15
-10
-8
-6
-2
3
8
14
22
30
36
42
43
37
24
15
12
11
10
11
15
16
12
8
3
0
-2
0
4
6
3
-3
-15
-33
-49
-57
-63
-66
-65
-63
-60
-54
-46
-34
-23
-17
-10
-3
4
12
20
25
30
38
48
55
57
58
59
52
43
41
40
40
44
50
52
46
39
33
28
21
9
-1
-9
-18
-27
-37
-47
-56
-63
-65
-63
-61
-58
-53
-47
-41
-36
-30
-22
-11
5
23
38
49
59
72
81
80
68
44
13
-12
-30
-45
-63
-81
-88
-84
-81
-81
-80
-73
-64
-54
-42
-29
-11
12
32
47
60
69
73
73
69
66
64
61
58
53
46
38
34
33
27
19
11
5
3
4
7
9
8
7
9
8
3
-2
-8
-15
-25
-33
-36
-36
-38
-41
-43
-45
-47
-48
-46
-43
-38
-33
-24
-11
0
9
15
17
20
26
32
32
26
22
22
27
34
40
44
45
42
38
28
7
-14
-27
-34
-42
-58
-71
-73
-69
-61
-51
-43
-37
-28
-16
-5
-1
-3
-3
0
6
12
18
23
32
42
44
40
36
36
38
36
31
27
32
50
63
62
47
27
10
0
-9
-18
-26
-39
-52
-60
-67
-70
-71
-71
-64
-51
-44
-46
-45
-36
-24
-15
-8
-1
5
13
22
30
35
42
52
57
55
48
44
43
42
41
41
38
35
35
30
17
3
-3
-2
0
0
0
1
5
10
11
7
1
-3
-6
-11
-16
-20
-23
-25
-28
-32
-36
-40
-45
-46
-43
-43
-45
-43
-34
-23
-12
1
15
29
46
65
75
69
57
46
36
24
14
11
7
-5
-21
-35
-47
-57
-66
-75
-82
-83
-77
-68
-55
-40
-24
-9
6
23
36
44
48
57
74
89
96
94
85
74
67
61
53
39
16
-4
-20
-34
-53
-71
-81
-83
-84
-85
-83
-76
-63
-41
-9
20
36
41
41
34
22
12
7
3
-1
-7
-14
-20
-22
-21
-22
-20
-13
-6
1
9
12
16
23
40
63
80
86
85
84
80
67
49
30
11
-6
-19
-25
-29
-37
-50
-61
-66
-70
-75
-75
-70
-62
-54
-42
-27
-12
0
11
24
39
56
72
80
79
73
65
55
43
29
13
-1
-11
-17
-26
-44
-60
-66
-63
-54
-37
-17
2
17
28
37
41
40
40
39
32
19
5
-5
-19
-39
-56
-65
-72
-78
-81
-81
-79
-74
-63
-49
-37
-26
-13
3
24
47
64
73
85
103
113
107
92
73
51
33
22
14
5
-5
-13
-17
-22
-34
-51
-59
-55
-49
-45
-40
-33
-22
-10
0
10
16
20
23
23
18
13
11
10
8
2
-2
-4
-1
9
25
37
41
39
34
25
16
12
11
8
2
-3
-9
-14
-17
-19
-21
-23
-26
-24
-16
-6
2
7
3
-7
-18
-23
-28
-35
-41
-39
-33
-29
-25
-22
-22
-23
-21
-17
-13
-5
5
16
26
38
48
52
52
48
44
39
36
36
40
44
40
28
13
-2
-20
-32
-36
-38
-42
-47
-49
-50
-49
-45
-40
-33
-27
-20
-10
0
7
12
14
14
15
13
9
2
-1
-1
0
0
0
3
10
19
24
25
26
30
36
40
39
38
39
40
37
32
31
34
36
33
28
16
-4
-25
-39
-47
-55
-64
-67
-64
-60
-59
-60
-61
-58
-50
-41
-34
-28
-19
-1
25
47
60
67
67
63
56
45
28
8
-10
-22
-28
-32
-33
-30
-24
-20
-18
-19
-18
-13
-7
-5
-1
9
26
41
54
66
74
77
75
67
49
18
-10
-26
-33
-40
-48
-54
-57
-58
-58
-55
-50
-39
-27
-19
-15
-15
-17
-15
-8
2
10
13
13
16
26
37
48
60
69
67
58
49
46
44
37
28
20
13
8
4
0
-8
-20
-34
-48
-58
-64
-66
-64
-61
-54
-47
-42
-41
-40
-33
-19
-5
8
25
35
36
36
41
50
58
59
54
46
35
26
21
15
5
-5
-11
-12
-10
-11
-18
-29
-36
-40
-43
-46
-46
-41
-32
-23
-17
-11
-2
15
40
63
73
67
54
43
29
15
3
-6
-16
-30
-39
-44
-51
-64
-76
-75
-63
-47
-28
-8
6
17
23
26
31
34
34
33
29
23
17
13
9
5
1
-1
0
1
-1
-12
-19
-10
6
23
32
31
26
19
12
9
10
17
25
30
29
21
10
4
3
4
3
1
-2
-3
1
2
-6
-17
-24
-30
-37
-44
-47
-42
-31
-20
-11
-4
12
42
65
71
65
56
48
37
23
6
-11
-29
-43
-49
-56
-72
-90
-98
-95
-89
-84
-77
-66
-54
-42
-28
-6
21
49
70
81
79
65
52
45
38
26
14
5
-1
-4
-2
-1
-2
-2
0
4
7
11
18
30
42
50
56
64
78
92
94
82
64
50
39
25
10
-6
-30
-63
-88
-98
-101
-104
-108
-104
-92
-79
-65
-49
-32
-13
9
38
68
91
111
126
126
111
88
62
36
7
-19
-42
-62
-81
-105
-136
-162
-170
-164
-151
-134
-115
-92
-69
-39
-1
31
58
85
111
133
141
135
126
116
101
80
60
40
19
0
-12
-17
-23
-32
-41
-45
-45
-41
-34
-22
-8
3
15
32
55
73
80
77
64
47
31
20
12
3
-6
-16
-24
-30
-41
-62
-80
-83
-75
-64
-52
-39
-27
-18
-9
0
9
21
34
43
44
41
36
30
23
19
18
17
14
16
21
21
12
1
-8
-19
-32
-43
-52
-58
-58
-52
-48
-46
-38
-27
-18
-13
-10
0
16
33
46
54
54
45
34
25
12
-11
-36
-51
-54
-52
-52
-49
-40
-23
-3
16
34
45
49
49
48
49
50
49
43
32
18
2
-10
-21
-22
-11
-1
0
0
7
18
20
15
13
14
13
10
6
2
-4
-13
-22
-33
-44
-53
-58
-55
-42
-26
-11
1
10
14
13
16
25
32
32
26
16
3
-4
-8
-8
0
16
34
45
49
46
40
37
35
27
12
-5
-19
-27
-31
-37
-51
-62
-59
-41
-9
22
35
31
23
14
1
-13
-22
-22
-19
-23
-34
-41
-45
-53
-71
-87
-92
-90
-84
-74
-60
-46
-33
-13
17
45
61
71
85
101
110
111
107
105
108
112
111
102
85
68
53
37
20
1
-16
-31
-41
-46
-56
-69
-77
-76
-74
-71
-68
-60
-49
-39
-29
-14
2
14
23
36
53
63
63
59
45
20
-1
-14
-21
-22
-18
-12
-11
-20
-38
-57
-70
-76
-78
-79
-81
-80
-74
-65
-53
-40
-28
-18
-10
2
24
45
58
67
81
99
111
111
100
78
54
38
30
20
3
-17
-31
-37
-36
-29
-17
-7
-1
1
6
13
16
16
12
4
-2
-5
-1
4
10
14
12
2
-5
-9
-10
-10
-8
-3
-1
-4
-10
-16
-17
-13
-7
-2
-3
-5
-1
7
15
21
25
25
20
15
7
-5
-22
-32
-32
-25
-16
-11
-8
-8
-9
-10
-14
-22
-29
-30
-26
-23
-22
-20
-15
-12
-8
10
42
75
101
107
89
60
34
17
-2
-28
-48
-52
-46
-46
-57
-70
-74
-74
-69
-60
-52
-41
-27
-13
-1
5
12
22
34
47
55
59
69
82
87
78
59
41
25
9
-4
-16
-23
-28
-35
-42
-41
-36
-34
-34
-31
-26
-17
-4
9
24
38
49
52
45
38
37
36
33
29
26
24
24
23
21
19
18
16
15
12
5
-1
-5
-9
-14
-18
-27
-39
-53
-65
-70
-71
-70
-69
-69
-68
-66
-61
-50
-35
-22
-13
-4
5
18
31
37
40
45
53
56
56
58
57
52
47
41
30
9
-14
-27
-29
-28
-30
-32
-29
-20
-12
-9
-9
-10
-10
-11
-17
-25
-28
-25
-22
-18
-12
-5
0
4
13
19
19
19
26
43
59
69
70
64
54
44
36
30
21
13
8
2
-6
-17
-32
-44
-50
-50
-47
-45
-41
-32
-25
-23
-23
-18
-8
2
15
32
46
51
50
45
34
23
18
19
19
10
-3
-16
-28
-42
-56
-65
-68
-66
-60
-54
-49
-44
-39
-34
-33
-34
-32
-26
-16
-3
10
24
36
53
77
89
82
70
61
54
51
53
56
59
63
62
50
30
4
-20
-40
-54
-65
-75
-84
-88
-85
-79
-74
-70
-60
-44
-25
-7
13
34
47
53
55
59
67
82
96
98
77
47
21
1
-20
-47
-66
-72
-73
-72
-67
-58
-48
-33
-12
7
18
25
41
64
78
76
67
53
34
10
-12
-28
-42
-50
-49
-44
-38
-32
-27
-23
-16
-4
8
20
31
43
49
45
35
24
12
-1
-17
-39
-59
-71
-75
-78
-82
-79
-65
-47
-28
-8
9
23
34
45
58
67
69
68
71
74
72
65
58
50
41
30
19
7
-9
-32
-51
-63
-70
-72
-69
-61
-50
-39
-28
-20
-12
-3
6
16
27
40
50
52
49
42
32
20
7
-5
-18
-25
-23
-15
0
21
35
34
22
4
-16
-33
-46
-56
-60
-57
-50
-41
-28
-14
-5
-3
0
5
12
19
22
20
16
11
5
-1
-7
-6
7
32
53
60
57
45
29
14
6
2
-3
-7
-7
-10
-14
-16
-17
-24
-31
-30
-23
-12
0
9
15
17
23
36
50
55
50
37
20
2
-13
-31
-52
-68
-72
-66
-55
-40
-27
-19
-16
-14
-10
-2
8
23
36
38
27
11
0
-9
-20
-29
-31
-27
-19
-7
3
15
21
26
36
44
49
51
54
56
49
34
16
-1
-17
-29
-38
-48
-58
-65
-65
-55
-36
-17
-4
0
3
9
15
17
17
16
14
11
8
9
10
9
5
0
-1
1
5
4
-4
-11
-5
12
30
34
27
16
4
-8
-18
-21
-18
-15
-12
-5
7
21
32
33
24
16
14
14
8
-4
-21
-36
-48
-55
-55
-51
-44
-33
-16
7
28
43
51
54
62
73
77
74
70
61
41
13
-14
-39
-62
-77
-79
-80
-86
-95
-94
-77
-54
-26
2
26
42
52
53
47
40
37
35
29
18
6
-2
-11
-21
-29
-28
-21
-17
-12
-2
9
16
16
11
6
2
4
12
24
32
31
22
8
-6
-18
-27
-31
-26
-12
0
4
2
-6
-18
-18
5
38
50
29
-1
-22
-33
-35
-26
-7
26
63
73
43
-5
-42
-59
-67
-72
-66
-42
-9
12
17
13
12
12
7
-6
-24
-37
-37
-16
17
37
43
49
58
63
63
61
53
38
19
0
-15
-23
-25
-26
-27
-25
-19
-12
-5
0
3
4
11
28
49
62
61
48
30
11
-6
-24
-48
-79
-104
-118
-122
-123
-117
-96
-66
-37
-7
27
54
67
73
74
74
78
85
89
90
82
65
43
21
2
-10
-1
31
60
51
-1
-61
-100
-116
-121
-120
-113
-102
-91
-79
-64
-48
-33
-18
2
30
52
62
66
71
79
83
81
77
72
66
62
61
55
41
23
9
-1
-10
-12
-4
7
12
2
-23
-58
-84
-95
-98
-103
-107
-100
-82
-61
-36
-2
29
50
64
73
75
68
60
55
51
47
44
42
40
30
10
-16
-45
-68
-86
-95
-93
-82
-65
-44
-19
0
16
31
46
63
76
79
74
66
60
58
52
39
13
-21
-48
-61
-67
-73
-79
-77
-64
-48
-30
-3
23
40
46
45
38
28
20
15
11
7
5
6
10
13
15
16
10
0
-15
-32
-48
-54
-52
-44
-31
-16
-1
13
23
24
22
20
12
4
6
11
12
11
8
0
-5
-1
12
18
7
-8
-15
-20
-26
-29
-27
-23
-18
-16
-18
-23
-22
-12
3
17
28
40
55
60
50
38
32
29
24
18
9
0
-7
-17
-32
-42
-43
-36
-28
-24
-20
-15
-7
0
10
16
18
21
30
40
44
40
27
9
-13
-30
-36
-39
-46
-55
-58
-46
-25
-6
3
4
0
-3
-5
-6
-7
-4
8
30
54
68
64
50
38
32
28
24
18
11
0
-11
-17
-20
-16
-3
8
7
-2
-21
-45
-64
-72
-73
-66
-51
-37
-22
-2
21
48
70
82
83
71
53
37
24
13
2
-7
-17
-25
-31
-35
-40
-45
-46
-40
-23
4
31
43
41
34
29
20
3
-12
-29
-45
-53
-53
-46
-32
-13
3
16
21
15
1
-8
-8
-4
0
4
10
13
8
-3
-15
-21
-17
-6
5
18
32
45
54
57
57
53
47
41
34
21
5
-7
-12
-13
-20
-32
-46
-60
-67
-66
-61
-57
-50
-34
-17
-8
-3
5
17
23
21
17
16
17
18
16
12
10
16
30
42
45
42
38
36
36
34
28
20
17
15
7
-6
-26
-47
-61
-64
-59
-55
-54
-53
-50
-44
-36
-30
-22
-10
4
16
21
24
28
31
33
32
24
15
17
26
30
28
27
28
28
20
8
-4
-20
-40
-54
-63
-67
-62
-43
-27
-20
-17
-10
0
10
19
28
38
53
69
77
75
63
45
24
4
-12
-31
-53
-65
-52
-21
8
21
14
2
-1
-4
-15
-27
-32
-29
-16
4
21
35
49
59
54
37
21
12
8
7
6
3
-6
-23
-44
-58
-66
-69
-68
-65
-61
-55
-48
-32
-3
29
57
73
71
60
47
33
11
-18
-50
-65
-61
-48
-28
-3
20
33
37
31
20
15
19
23
21
13
3
-1
-3
-1
11
38
68
84
77
51
26
12
12
19
20
11
0
-10
-22
-37
-56
-71
-75
-63
-48
-39
-33
-24
-19
-25
-39
-58
-84
-110
-125
-114
-81
-43
0
49
84
102
106
101
93
84
78
74
69
66
68
73
71
52
22
-10
-40
-64
-81
-93
-92
-79
-64
-49
-29
-3
25
50
55
36
9
-5
1
27
53
64
61
50
28
1
-26
-53
-71
-63
-36
-21
-29
-38
-38
-41
-51
-56
-36
9
43
54
63
72
67
47
22
-4
-33
-58
-68
-62
-48
-26
2
23
28
26
20
9
0
-2
0
9
27
41
46
43
33
18
5
0
2
16
33
43
44
40
32
16
-12
-51
-94
-139
-181
-197
-183
-150
-106
-53
0
45
86
128
162
164
135
108
99
93
76
49
20
-11
-45
-70
-74
-57
-22
17
41
48
52
46
30
16
2
-16
-34
-42
-37
-27
-23
-33
-54
-68
-63
-55
-68
-103
-125
-111
-72
-26
17
73
136
177
173
129
73
30
5
-15
-45
-69
-72
-62
-37
3
36
51
58
58
43
21
3
-10
-18
-20
-22
-30
-40
-44
-35
-15
0
0
-7
1
22
39
55
80
107
122
116
84
34
-11
-46
-80
-119
-152
-145
-102
-59
-42
-50
-63
-67
-71
-82
-95
-104
-106
-90
-38
49
133
188
222
237
231
207
177
147
110
56
-3
-50
-85
-119
-158
-182
-179
-157
-118
-65
-7
39
69
90
105
109
101
78
44
15
-2
-20
-49
-75
-71
-43
-21
-12
-14
-24
-43
-76
-112
-130
-123
-107
-94
-62
-6
40
54
51
45
42
46
61
83
105
112
102
89
84
81
68
45
18
-5
-1
39
80
91
84
52
-8
-64
-95
-122
-170
-230
-257
-234
-189
-119
-10
97
178
246
305
330
297
219
117
-12
-162
-278
-335
-341
-300
-220
-132
-54
12
71
114
132
134
128
118
109
108
108
98
82
68
47
11
-24
-50
-70
-90
-107
-121
-133
-131
-115
-82
-18
65
118
132
123
97
51
0
-49
-96
-143
-172
-160
-107
-37
37
117
178
202
194
162
112
55
-1
-50
-91
-129
-159
-168
-151
-113
-70
-28
15
58
93
127
167
210
236
223
168
91
18
-45
-115
-187
-225
-224
-202
-176
-144
-97
-44
-5
14
26
30
20
1
2
47
121
186
212
201
162
105
44
-18
-71
-94
-98
-109
-124
-123
-102
-79
-62
-45
-32
-31
-36
-30
7
76
145
203
252
274
257
208
132
31
-99
-237
-322
-339
-331
-306
-247
-163
-82
-11
69
151
186
166
129
101
85
67
43
19
3
-5
-13
-21
-29
-27
-16
-11
-4
13
43
73
85
83
98
157
243
291
258
161
11
-186
-369
-490
-552
-541
-454
-317
-156
10
146
212
223
217
215
231
258
271
264
252
233
180
97
9
-87
-199
-281
-302
-283
-247
-200
-134
-50
39
127
209
268
297
297
247
143
18
-100
-202
-287
-345
-347
-303
-244
-172
-70
38
117
146
131
100
95
124
165
197
189
131
55
-8
-59
-112
-150
-157
-134
-81
-14
54
133
205
220
163
73
-21
-118
-207
-261
-259
-216
-153
-73
9
72
103
125
163
192
191
164
118
70
46
53
60
35
-14
-60
-98
-136
-164
-172
-166
-153
-136
-100
-25
71
156
209
219
190
142
90
29
-59
-165
-238
-265
-255
-178
-28
127
232
270
238
141
17
-101
-200
-280
-332
-336
-293
-217
-103
39
149
198
218
247
286
318
331
343
361
345
272
166
22
-166
-330
-418
-448
-424
-347
-257
-178
-99
-15
55
95
112
124
129
124
108
91
79
68
52
46
43
22
-18
-52
-60
-49
-27
4
32
25
-8
-31
-10
47
102
126
121
71
-24
-116
-167
-183
-169
-126
-76
-31
5
27
26
0
-40
-73
-86
-76
-41
8
57
94
109
97
75
61
56
50
40
24
1
-18
-19
-5
4
1
-3
6
32
59
79
79
47
-5
-63
-113
-146
-153
-131
-91
-47
30
165
278
306
265
163
7
-142
-242
-291
-297
-272
-228
-161
-67
56
186
251
232
177
115
48
-9
-50
-69
-55
-5
46
78
101
115
100
42
-38
-111
-172
-214
-213
-170
-93
8
91
126
129
104
44
-22
-64
-78
-47
42
146
206
207
145
35
-67
-131
-169
-196
-210
-198
-157
-86
41
211
314
301
229
134
19
-80
-138
-165
-156
-106
-37
18
51
66
59
25
-26
-79
-121
-144
-137
-105
-60
-8
44
91
132
159
161
140
110
74
34
2
-12
-20
-28
-38
-54
-77
-94
-99
-87
-45
33
124
196
224
189
96
-17
-121
-203
-253
-259
-225
-177
-134
-77
0
60
93
125
149
151
137
121
100
65
22
-14
-42
-62
-66
-55
-48
-55
-64
-55
-21
20
60
89
88
60
34
18
5
-7
-23
-40
-53
-52
-25
28
71
80
60
16
-42
-92
-117
-118
-104
-71
-20
34
98
182
248
260
228
161
62
-36
-105
-149
-179
-202
-220
-226
-199
-90
78
180
160
81
-7
-90
-146
-173
-182
-177
-148
-88
-8
65
119
153
162
155
146
144
145
132
104
76
57
60
95
162
242
284
236
106
-51
-198
-361
-535
-622
-588
-495
-369
-197
-9
147
246
276
255
217
185
164
147
128
109
98
92
79
62
50
43
31
15
9
15
20
17
8
0
-7
-16
-22
-29
-43
-65
-84
-97
-106
-113
-117
-117
-99
-56
0
52
87
89
55
13
-20
-50
-77
-98
-103
-93
-70
-27
37
103
148
160
146
118
80
39
10
-3
-14
-29
-40
-26
40
136
172
121
35
-67
-182
-270
-308
-305
-262
-178
-69
48
154
210
193
127
56
1
-35
-57
-55
-23
28
83
126
135
111
75
30
-20
-60
-82
-88
-70
-23
28
65
90
119
145
148
125
91
42
-24
-80
-105
-105
-106
-113
-103
-70
-34
-16
-11
15
73
128
150
140
109
66
15
-53
-139
-205
-230
-228
-206
-159
-93
-27
26
70
104
115
100
73
49
36
33
30
28
28
28
30
33
32
28
24
24
24
18
6
-3
-9
-18
-19
7
47
75
85
66
18
-35
-80
-123
-179
-233
-245
-201
-133
-68
-17
28
80
134
160
142
104
73
51
35
26
20
9
-6
-17
-15
-4
2
0
-8
-17
-20
-12
4
25
56
93
128
152
150
120
86
60
36
-17
-103
-171
-204
-228
-246
-238
-208
-174
-148
-112
-61
-18
9
37
74
117
146
157
157
146
118
86
63
49
36
18
2
-2
3
16
33
48
53
55
60
61
49
27
-1
-36
-77
-112
-128
-126
-100
-49
-2
20
20
9
-8
-22
-28
-31
-28
-14
6
32
61
83
85
72
54
35
17
8
8
10
7
6
14
18
6
-17
-53
-101
-141
-153
-134
-86
-25
17
36
36
15
-16
-41
-46
-33
-17
-12
-15
-16
-8
8
23
28
25
21
21
23
24
29
60
117
157
146
104
50
-10
-64
-100
-119
-129
-126
-96
-36
30
82
108
107
89
65
40
18
4
0
-3
-5
-7
-6
-2
3
6
4
2
3
5
2
-6
-17
-27
-33
-39
-50
-61
-65
-58
-45
-31
-18
-10
-5
0
8
10
7
5
8
14
16
14
20
37
50
47
32
13
-7
-34
-57
-68
-71
-69
-62
-50
-29
-3
21
42
59
73
84
86
79
68
54
31
-1
-37
-62
-72
-71
-61
-42
-23
-4
13
24
26
28
38
50
49
33
19
16
20
20
13
1
-5
-3
7
21
24
19
14
10
5
-1
-8
-15
-22
-31
-38
-43
-46
-46
-45
-43
-38
-29
-19
-11
-5
-1
-1
1
10
21
25
24
22
24
26
25
22
15
7
0
-6
-9
-12
-15
-18
-19
-21
-22
-21
-18
-17
-16
-10
-5
0
9
24
38
44
42
39
38
33
20
6
-1
-5
-9
-16
-29
-42
-50
-55
-59
-60
-55
-43
-27
-7
10
18
19
24
39
54
58
51
38
25
17
15
14
8
-3
-13
-19
-20
-19
-13
-7
-4
-7
-8
0
11
20
24
21
12
7
10
16
22
24
20
11
1
-4
-10
-17
-23
-29
-35
-43
-48
-44
-33
-23
-17
-13
-8
-3
0
5
9
13
17
21
24
22
18
17
17
14
9
4
0
-1
-3
-4
-9
-16
-22
-21
-16
-12
-9
-6
0
5
11
16
20
26
33
38
36
28
17
10
5
0
-6
-12
-15
-11
-7
-10
-20
-29
-32
-32
-33
-36
-38
-35
-30
-21
-8
7
23
42
61
72
70
61
51
38
23
11
1
-9
-20
-29
-35
-34
-27
-16
-7
-4
-5
-5
-7
-13
-18
-18
-16
-11
-2
6
10
10
11
16
19
15
10
3
-3
-8
-10
-14
-21
-28
-29
-24
-21
-18
-10
0
7
10
12
13
15
19
26
30
28
21
17
13
8
1
-5
-10
-12
-11
-11
-14
-17
-16
-14
-11
-9
-7
-4
0
5
9
10
13
18
25
29
28
27
30
33
31
21
9
-4
-25
-45
-56
-64
-71
-74
-69
-58
-44
-27
-7
10
22
33
42
50
56
59
56
47
33
23
18
13
6
0
-6
-11
-14
-15
-21
-28
-30
-27
-25
-27
-26
-19
-10
-3
3
8
12
19
28
34
33
27
22
19
11
2
-3
-6
-10
-13
-15
-19
-23
-24
-22
-18
-15
-12
-6
0
4
9
11
12
14
18
21
20
17
14
12
10
4
-3
-9
-11
-11
-11
-16
-25
-30
-28
-22
-13
-4
4
8
9
8
7
8
12
19
22
18
12
8
3
-3
-8
-7
-6
-6
-6
-6
-8
-13
-14
-12
-10
-10
-9
-5
0
2
4
6
8
12
20
25
26
23
19
15
10
5
0
-4
-7
-9
-10
-15
-23
-29
-29
-24
-18
-12
-6
0
3
7
15
21
26
30
33
32
26
21
16
10
0
-8
-12
-16
-20
-25
-31
-35
-35
-30
-22
-16
-13
-9
-1
6
10
12
12
15
23
24
20
15
10
8
5
0
-3
-6
-9
-10
-9
-11
-16
-22
-23
-18
-13
-7
0
8
14
14
12
13
19
27
32
34
31
25
18
10
0
-10
-19
-24
-27
-27
-28
-30
-30
-24
-12
0
5
7
5
2
-3
-7
-9
-11
-8
-1
3
3
6
13
20
21
17
16
18
18
16
11
4
-2
-5
-6
-7
-9
-12
-12
-9
-4
-1
-2
-4
0
6
12
14
13
12
14
16
16
16
16
14
11
1
-17
-33
-39
-36
-33
-31
-28
-21
-13
-8
-7
-7
-3
3
15
27
34
35
35
31
21
10
2
-5
-14
-23
-29
-32
-34
-31
-25
-19
-15
-7
2
11
15
18
20
20
19
25
34
37
33
27
20
12
5
-2
-8
-11
-12
-16
-30
-49
-59
-58
-53
-45
-34
-22
-12
0
11
19
21
23
27
31
33
32
33
34
33
30
27
22
17
10
0
-10
-19
-25
-26
-22
-17
-13
-11
-8
-4
0
4
7
12
22
28
27
21
15
9
2
-3
-8
-10
-12
-11
-9
-11
-14
-12
-5
0
3
0
-5
-11
-16
-21
-26
-32
-31
-24
-14
-7
-4
-1
1
5
8
9
9
7
8
8
3
-2
-3
-1
0
2
6
13
23
39
57
66
62
49
34
17
0
-14
-23
-29
-38
-46
-50
-49
-48
-44
-32
-13
2
11
18
22
20
13
6
1
-2
-6
-11
-16
-20
-15
-1
9
10
8
8
10
11
11
12
13
15
18
14
3
-6
-10
-8
-6
-9
-13
-15
-13
-9
-4
-1
0
4
11
15
16
14
13
14
14
11
8
6
8
8
1
-8
-16
-18
-18
-20
-23
-24
-20
-13
-8
-4
-1
2
8
16
22
21
15
11
7
3
0
-3
-7
-9
-9
-8
-10
-15
-18
-14
-7
-1
2
11
22
29
32
30
23
17
13
8
0
-12
-19
-19
-20
-24
-28
-35
-37
-34
-30
-29
-27
-22
-14
-6
2
13
23
30
34
40
46
48
46
49
58
62
59
50
38
29
22
9
-13
-42
-72
-94
-108
-115
-116
-110
-98
-84
-69
-50
-28
-8
7
22
39
58
74
84
88
87
82
78
72
57
42
32
24
16
7
-4
-17
-23
-20
-14
-10
-5
0
8
15
15
7
-1
-6
-4
-2
-6
-13
-18
-19
-20
-22
-21
-17
-12
-9
-8
-15
-26
-34
-39
-43
-42
-38
-30
-17
-1
8
12
13
17
26
34
38
41
46
49
45
34
22
7
-14
-33
-40
-45
-53
-61
-60
-50
-40
-32
-21
-10
0
11
25
44
58
65
68
66
59
49
42
34
23
10
0
-8
-15
-24
-38
-54
-64
-66
-63
-59
-53
-43
-30
-17
-7
1
8
12
20
32
39
40
40
43
49
55
60
65
70
69
57
36
11
-18
-48
-69
-77
-78
-71
-64
-60
-56
-54
-49
-41
-28
-13
-1
7
18
27
35
40
41
39
36
32
29
24
15
9
12
22
34
41
40
36
33
27
16
1
-12
-22
-25
-28
-33
-37
-39
-40
-44
-46
-46
-45
-41
-33
-24
-17
-14
-9
-1
6
9
9
12
20
27
33
41
52
63
69
65
55
42
25
10
-2
-15
-28
-45
-59
-63
-63
-64
-67
-66
-57
-47
-35
-20
-6
4
13
31
57
78
88
96
105
108
100
81
57
23
-17
-49
-67
-76
-86
-98
-108
-111
-107
-92
-67
-44
-30
-16
0
18
32
42
48
58
72
82
83
75
64
54
50
50
49
40
23
10
2
-6
-21
-39
-51
-54
-56
-57
-54
-45
-35
-28
-22
-16
-10
-1
8
13
14
13
15
15
17
20
22
20
16
11
3
-7
-16
-18
-18
-19
-18
-11
-3
2
6
9
10
10
11
15
16
15
14
13
10
4
-2
-10
-17
-22
-24
-23
-24
-20
-6
7
13
13
8
2
-4
-8
-8
-9
-9
-5
1
5
6
9
13
14
11
6
0
-7
-11
-11
-12
-18
-22
-16
-5
1
6
9
9
4
-1
-4
-7
-14
-17
-15
-14
-13
-7
4
16
24
24
17
6
-7
-21
-27
-25
-21
-15
-5
0
1
-1
0
3
10
21
33
47
60
65
60
48
39
29
19
10
2
-6
-19
-29
-33
-33
-35
-44
-48
-40
-26
-13
-4
1
3
5
5
4
3
4
9
12
10
5
2
1
2
2
2
2
2
3
4
0
-6
-10
-8
-2
2
5
11
17
17
16
14
11
9
8
6
2
-3
-9
-16
-21
-23
-21
-17
-11
-6
-4
-6
-8
-5
2
10
13
14
13
9
3
0
-5
-11
-14
-13
-17
-29
-40
-45
-43
-37
-31
-24
-21
-18
-7
11
25
30
30
30
28
25
21
20
19
14
10
8
3
-2
-3
-3
-4
-7
-5
1
13
24
29
26
20
13
9
3
-4
-9
-8
-3
1
6
15
24
26
24
22
23
26
28
26
16
1
-9
-14
-19
-21
-19
-14
-13
-18
-23
-27
-30
-33
-33
-33
-36
-40
-39
-33
-29
-31
-30
-27
-20
-4
21
41
50
53
51
43
32
22
14
6
0
-7
-15
-23
-30
-32
-27
-17
-7
1
7
8
7
12
21
30
37
40
36
26
14
4
-3
-12
-21
-29
-34
-32
-23
-12
-5
-2
1
10
21
28
30
30
25
21
20
18
18
20
13
-1
-14
-21
-21
-19
-17
-18
-22
-28
-33
-35
-36
-38
-38
-33
-23
-16
-11
-4
9
21
29
35
40
41
42
45
45
40
31
23
19
16
11
1
-13
-27
-31
-32
-38
-45
-45
-39
-32
-28
-24
-19
-14
-10
-6
-4
-1
4
13
30
51
65
68
62
50
32
16
3
-8
-21
-36
-48
-51
-42
-24
-6
-3
-9
-17
-23
-26
-24
-20
-14
-4
14
27
29
25
18
12
6
1
-3
-11
-21
-27
-25
-25
-28
-30
-27
-21
-15
-3
18
38
51
62
71
77
79
80
80
75
65
53
42
29
10
-13
-35
-51
-61
-69
-77
-79
-68
-47
-27
-16
-11
-7
-5
-3
1
5
6
5
4
1
-5
-14
-21
-23
-20
-16
-15
-19
-28
-36
-36
-31
-25
-16
-2
9
14
17
23
37
49
56
60
61
58
54
47
37
24
7
-8
-21
-31
-40
-52
-61
-62
-60
-60
-64
-63
-54
-41
-26
-9
10
30
46
63
87
111
130
134
122
97
68
44
26
6
-18
-41
-56
-66
-77
-86
-93
-97
-98
-93
-84
-72
-55
-30
0
28
45
53
58
67
78
80
73
62
46
25
6
-8
-19
-28
-40
-50
-58
-65
-74
-78
-71
-54
-32
-9
13
26
30
34
39
41
40
37
34
32
32
34
35
36
36
36
34
28
21
14
3
-12
-26
-31
-29
-30
-34
-34
-29
-27
-24
-18
-12
-3
9
25
36
43
49
54
53
43
27
11
-4
-18
-25
-32
-45
-60
-70
-74
-73
-71
-68
-60
-50
-37
-20
3
33
62
81
88
85
80
75
67
54
38
21
7
-2
-16
-35
-58
-74
-80
-79
-77
-76
-69
-59
-51
-45
-35
-20
-7
5
20
41
61
81
95
95
81
61
43
27
9
-9
-24
-33
-41
-47
-50
-51
-49
-43
-31
-16
-4
8
22
39
58
71
73
66
57
49
42
34
26
18
7
-2
-9
-17
-27
-35
-35
-24
-5
16
38
52
52
44
33
21
10
1
-4
-14
-32
-51
-63
-71
-78
-78
-66
-48
-37
-33
-30
-30
-34
-38
-38
-34
-28
-18
-4
4
7
4
0
-9
-17
-20
-16
-10
-4
3
13
19
21
23
27
32
39
46
54
66
83
94
93
84
74
66
57
47
39
29
14
4
3
3
-3
-18
-35
-48
-56
-61
-65
-67
-67
-61
-51
-46
-45
-44
-38
-31
-25
-17
-6
0
2
4
5
9
15
24
34
42
44
43
41
37
30
22
12
1
-9
-17
-24
-34
-47
-58
-62
-60
-55
-46
-32
-17
1
21
35
44
52
56
53
48
49
58
67
69
59
38
12
-10
-28
-47
-71
-88
-91
-88
-84
-79
-69
-54
-36
-11
19
45
61
69
71
69
61
50
41
31
16
2
-6
-13
-17
-17
-15
-11
-9
-8
-6
-7
-8
-5
5
18
25
28
26
19
14
13
11
9
18
40
53
47
27
0
-31
-56
-68
-74
-80
-84
-80
-72
-66
-64
-62
-59
-51
-38
-20
2
20
34
49
63
71
69
67
68
66
60
53
48
48
49
48
41
28
14
0
-15
-32
-42
-44
-42
-40
-37
-31
-27
-19
-7
0
2
1
6
14
17
14
7
-2
-12
-16
-14
-13
-19
-27
-32
-35
-38
-38
-33
-25
-17
-7
0
6
12
22
40
67
95
105
93
71
43
13
-9
-25
-36
-45
-53
-63
-68
-66
-52
-27
-5
4
5
3
3
3
1
0
0
0
-4
-5
0
8
16
15
9
4
-2
-8
-13
-16
-19
-20
-16
-11
-8
-4
1
10
21
32
39
40
42
52
62
66
62
54
42
29
21
18
8
-9
-24
-30
-35
-42
-44
-36
-22
-10
-3
0
-2
-13
-21
-26
-33
-38
-32
-18
-5
-3
-12
-24
-38
-58
-73
-77
-75
-68
-53
-39
-30
-20
-2
20
37
44
49
56
67
75
75
70
64
61
58
52
44
42
52
63
63
54
44
36
28
19
6
-17
-50
-75
-83
-88
-95
-99
-95
-82
-63
-46
-30
-11
8
22
28
28
28
31
32
25
11
0
-2
-3
-10
-17
-20
-17
-8
4
15
19
23
27
32
38
37
26
14
4
-2
-11
-20
-28
-31
-30
-29
-28
-25
-23
-25
-24
-18
-13
-12
-8
-2
2
5
11
20
28
34
38
42
47
52
56
58
54
47
42
39
39
42
39
24
6
-8
-28
-58
-84
-98
-102
-101
-95
-82
-65
-52
-40
-23
-6
7
18
26
29
23
14
10
10
13
16
18
16
11
9
14
24
35
48
57
53
37
17
-2
-30
-55
-66
-70
-69
-61
-46
-31
-21
-14
-6
1
7
13
27
47
62
68
69
66
56
44
34
22
7
-9
-24
-35
-44
-48
-47
-44
-36
-24
-8
6
16
24
32
38
38
35
31
28
24
19
14
11
15
29
46
51
43
31
9
-21
-46
-65
-79
-85
-77
-63
-56
-57
-63
-70
-72
-69
-61
-49
-37
-24
-13
-7
0
13
28
38
42
45
53
56
55
58
65
71
71
70
72
69
59
48
40
34
26
16
4
-7
-19
-34
-52
-67
-74
-73
-65
-54
-40
-27
-22
-25
-23
-18
-16
-15
-7
5
15
21
23
22
16
8
1
-2
-3
-2
0
-1
-6
-7
0
7
8
8
9
8
3
-1
-2
-3
-2
2
10
20
28
36
39
34
26
15
4
-5
-11
-15
-21
-38
-57
-68
-69
-64
-53
-35
-19
-9
2
20
34
41
46
49
51
47
40
33
26
15
4
-3
-8
-7
-5
-5
-8
-10
-12
-16
-16
-12
-11
-14
-17
-18
-14
-11
-7
3
17
29
34
35
31
22
7
-7
-23
-35
-38
-32
-26
-26
-30
-28
-20
-14
-6
16
42
58
63
57
45
32
25
21
14
0
-9
-11
-8
-9
-15
-21
-24
-26
-26
-25
-26
-22
-14
-9
-8
-5
-1
3
6
8
10
12
12
14
26
48
68
75
61
31
-1
-24
-40
-54
-67
-74
-72
-65
-64
-66
-62
-51
-41
-27
-4
20
37
44
50
57
60
59
56
52
52
61
75
84
74
40
-1
-34
-57
-70
-81
-87
-87
-82
-77
-71
-60
-45
-31
-18
1
24
42
56
71
87
91
81
67
52
35
21
11
4
-1
-7
-9
-8
-6
-10
-21
-33
-39
-38
-35
-37
-41
-42
-38
-32
-26
-18
-8
0
7
16
23
27
25
20
16
12
14
19
21
13
0
-13
-24
-33
-39
-38
-33
-28
-19
-6
7
21
37
57
72
74
65
54
41
25
9
-2
-10
-17
-24
-32
-38
-38
-26
-6
4
8
17
21
14
4
-2
-8
-14
-19
-21
-20
-22
-24
-23
-18
-11
-6
-3
-2
-1
0
0
-5
-12
-12
-9
-6
-2
2
4
6
9
15
21
23
25
29
28
22
15
11
10
7
2
0
-1
-1
0
4
2
-10
-24
-34
-44
-51
-49
-45
-43
-36
-24
-12
-3
5
20
36
46
50
53
54
47
36
25
15
5
-4
-11
-16
-19
-16
-9
-5
-9
-15
-24
-33
-36
-32
-26
-17
-6
5
15
22
29
42
55
62
60
51
34
12
-4
-11
-14
-21
-28
-28
-24
-21
-18
-15
-14
-12
-7
-3
0
2
7
10
4
-5
-12
-13
-15
-18
-18
-13
-7
-4
-5
-8
-5
5
21
32
32
26
15
3
-5
-11
-15
-21
-32
-42
-47
-45
-41
-30
-9
14
34
48
58
61
58
58
61
55
36
17
3
-6
-13
-18
-22
-22
-17
-16
-18
-17
-9
3
15
21
22
21
16
7
-2
-6
-4
-6
-16
-35
-57
-75
-85
-91
-91
-80
-61
-46
-31
-9
17
37
52
70
89
94
85
71
64
62
60
56
47
30
9
-5
-15
-29
-43
-46
-40
-35
-36
-42
-51
-57
-56
-49
-39
-31
-19
-1
15
32
57
84
97
93
79
61
44
28
15
0
-21
-41
