emg_value
-6
-10
-11
-12
-16
-21
-20
-16
-13
-11
-8
-4
-1
4
12
19
25
33
43
46
39
26
14
5
1
-1
-6
-13
-17
-21
-23
-24
-27
-29
-30
-31
-28
-21
-9
5
18
30
38
42
45
46
46
45
43
37
27
17
9
2
-9
-21
-29
-37
-47
-56
-57
-49
-38
-28
-14
-3
1
2
3
8
16
25
32
35
36
32
27
21
17
11
4
-1
-4
-5
-5
-7
-10
-10
-7
-8
-12
-10
-1
4
7
11
16
18
17
16
12
5
0
-5
-11
-19
-19
-16
-18
-22
-23
-20
-19
-24
-28
-26
-18
-11
-3
7
12
12
11
8
3
2
6
13
17
17
15
13
10
3
-1
-3
-6
-6
-8
-17
-26
-29
-27
-24
-24
-22
-16
-9
0
11
23
31
38
47
57
62
60
55
46
34
22
12
1
-13
-30
-44
-53
-60
-62
-59
-54
-48
-40
-26
-1
22
37
42
41
40
40
39
35
26
16
8
4
-2
-10
-21
-30
-31
-28
-29
-31
-31
-26
-21
-19
-19
-16
-10
-2
7
17
22
25
28
31
31
32
36
37
32
23
13
3
-1
0
5
3
-5
-16
-27
-41
-50
-51
-45
-38
-32
-24
-12
-1
9
23
37
42
37
29
23
17
14
13
9
0
-11
-20
-25
-32
-40
-44
-39
-33
-24
-12
-2
4
12
21
29
36
47
58
61
53
41
32
27
24
20
16
12
8
3
-4
-13
-21
-24
-28
-34
-39
-40
-39
-37
-34
-29
-24
-19
-12
-2
6
12
14
14
11
8
4
0
-3
-2
1
3
0
-5
-7
-10
-14
-20
-27
-32
-34
-30
-22
-14
-5
5
18
27
27
22
20
20
19
18
18
19
24
29
26
18
12
9
9
10
11
12
13
12
8
5
3
2
3
6
8
9
7
2
-3
-8
-9
-8
-12
-18
-21
-22
-28
-34
-37
-36
-35
-34
-30
-20
-9
0
5
7
12
22
31
34
32
29
28
28
27
23
16
7
-2
-9
-14
-22
-30
-33
-29
-22
-16
-10
-7
-8
-9
-9
-7
-6
-4
0
3
4
2
1
0
-2
-5
-9
-12
-13
-11
-10
-9
-5
3
13
21
24
23
22
19
13
9
4
0
1
8
14
15
16
20
21
17
14
11
6
1
-3
-7
-12
-19
-26
-27
-23
-18
-14
-9
-6
-4
-2
0
0
0
4
12
17
17
15
18
21
21
21
21
20
20
17
9
0
-5
-5
-6
-12
-22
-26
-24
-24
-26
-28
-30
-29
-27
-23
-18
-16
-14
-11
-5
0
4
7
8
8
9
11
12
15
20
22
22
20
23
27
28
27
26
25
22
20
17
12
5
-2
-11
-18
-23
-28
-33
-39
-40
-38
-33
-30
-30
-31
-31
-31
-29
-23
-18
-14
-10
-6
0
9
15
22
29
29
24
19
14
9
7
7
8
7
6
6
8
11
14
17
20
22
22
22
23
27
29
25
20
22
27
26
19
10
4
0
-1
-3
-7
-13
-18
-21
-24
-31
-38
-41
-38
-35
-34
-31
-28
-24
-18
-10
-4
-1
2
10
18
23
26
30
30
26
19
10
0
-8
-13
-21
-36
-47
-48
-41
-32
-23
-15
-7
-1
1
5
10
16
24
35
47
51
49
46
43
38
31
22
10
-2
-12
-18
-25
-36
-48
-54
-54
-52
-43
-30
-18
-10
-1
8
17
23
25
24
18
13
13
15
14
12
9
7
4
0
-5
-15
-24
-24
-18
-12
-11
-9
-4
0
2
5
7
7
10
16
24
27
25
24
22
22
21
18
15
15
15
12
7
2
0
1
1
0
0
0
-1
-4
-5
-4
-4
-4
0
2
0
-9
-15
-17
-16
-15
-18
-28
-36
-37
-35
-34
-35
-38
-35
-27
-19
-11
-2
5
12
17
19
21
23
27
32
34
31
26
22
19
13
5
-1
-6
-14
-22
-28
-33
-36
-29
-16
-6
0
9
18
21
20
18
16
17
24
32
34
31
23
14
5
0
-1
-3
-2
0
2
2
0
-6
-10
-9
-6
-4
-2
-1
0
2
5
5
3
1
-1
-9
-21
-33
-39
-41
-44
-48
-47
-43
-39
-34
-27
-24
-24
-19
-7
8
21
28
33
39
43
45
46
47
48
48
44
39
33
25
17
12
11
9
6
3
0
-4
-9
-15
-20
-23
-23
-21
-17
-14
-12
-8
-4
-3
-3
0
5
13
16
11
3
-1
-3
-6
-12
-18
-20
-17
-17
-23
-30
-28
-20
-13
-9
-6
0
6
13
19
21
21
22
24
24
21
17
16
11
5
1
0
0
-3
-7
-12
-19
-25
-25
-22
-15
-7
0
7
13
15
16
18
16
15
18
20
16
7
-4
-11
-12
-11
-12
-15
-16
-14
-13
-17
-21
-16
-3
6
8
1
-7
-12
-14
-14
-17
-20
-19
-12
-6
-8
-11
-10
-6
-2
1
4
8
13
18
20
18
11
6
4
7
9
11
13
14
14
13
12
11
16
26
34
34
28
21
15
8
2
-4
-12
-20
-25
-26
-30
-37
-40
-36
-27
-17
-9
-1
5
9
13
16
18
22
27
32
34
32
29
25
21
14
6
0
-6
-10
-14
-18
-22
-26
-25
-22
-21
-18
-13
-10
-9
-4
3
11
18
23
23
18
9
0
-10
-24
-35
-41
-43
-43
-41
-37
-31
-26
-23
-20
-14
-8
-5
-1
5
14
20
24
26
29
34
41
41
34
23
15
13
12
9
0
-8
-11
-9
-9
-11
-12
-10
-7
-4
-2
0
6
9
15
27
36
40
43
47
48
42
31
20
9
-3
-16
-26
-33
-41
-51
-61
-70
-76
-76
-71
-61
-49
-37
-25
-10
3
16
26
34
47
60
65
63
61
62
62
58
48
32
10
-7
-16
-24
-36
-48
-51
-45
-41
-41
-40
-36
-30
-23
-14
-7
-2
5
16
28
39
45
49
53
54
51
42
30
18
6
-9
-26
-37
-41
-41
-40
-40
-41
-40
-38
-34
-28
-22
-13
1
16
24
28
33
41
46
45
39
33
28
23
19
14
5
-6
-14
-12
-8
-9
-10
-9
-7
-5
-1
2
3
1
0
-2
-6
-11
-14
-15
-17
-19
-23
-30
-34
-35
-34
-36
-38
-31
-19
-9
0
12
22
30
31
31
34
38
43
47
45
35
23
13
4
-2
-8
-13
-16
-18
-17
-16
-18
-22
-23
-21
-17
-13
-6
3
9
12
19
24
22
19
18
17
11
-1
-12
-16
-16
-14
-16
-23
-27
-27
-25
-24
-25
-25
-22
-17
-10
-4
1
7
12
17
22
25
29
39
53
60
59
52
45
39
33
25
19
11
0
-14
-26
-36
-42
-44
-43
-40
-36
-29
-22
-17
-11
-6
-2
1
6
12
14
12
7
3
1
0
-4
-9
-15
-18
-14
-9
-7
-6
-3
0
1
-1
-2
0
2
6
13
21
29
38
40
34
23
11
1
-4
-12
-20
-27
-38
-49
-57
-62
-64
-62
-55
-43
-32
-25
-18
-8
3
15
29
46
65
84
94
94
86
71
53
36
23
10
-2
-14
-22
-25
-28
-30
-27
-23
-23
-25
-27
-25
-18
-11
-5
0
3
7
11
16
17
11
5
4
4
2
-2
-6
-10
-16
-21
-23
-23
-22
-20
-14
-6
-2
0
0
4
11
22
33
40
47
53
49
39
28
14
2
-8
-16
-21
-25
-30
-35
-38
-42
-43
-40
-33
-23
-14
-5
4
12
17
22
29
40
50
57
57
49
36
23
14
6
-3
-16
-28
-37
-39
-41
-48
-55
-55
-50
-43
-38
-34
-30
-26
-15
1
17
31
43
50
52
46
37
30
25
22
16
9
1
-9
-20
-25
-30
-35
-38
-34
-24
-13
-1
10
22
30
35
35
33
31
29
26
20
13
8
6
3
-1
-9
-16
-21
-24
-24
-27
-33
-34
-29
-19
-5
11
21
22
19
14
9
6
6
9
11
8
2
-2
-3
-5
-15
-26
-32
-34
-36
-37
-39
-41
-39
-29
-13
0
7
15
22
25
27
30
32
35
39
41
38
29
20
15
12
8
7
7
1
-2
3
11
11
4
-1
-1
-1
-4
-8
-9
-6
-4
-2
0
1
2
2
-2
-13
-21
-24
-24
-22
-16
-9
-1
6
12
10
1
-7
-13
-14
-15
-16
-19
-22
-25
-26
-25
-26
-27
-26
-19
-12
-7
1
15
31
40
41
39
38
39
39
35
27
17
8
3
0
-5
-8
-8
-8
-8
-5
-4
-3
0
6
10
10
9
8
7
6
1
-1
-3
-4
-3
0
0
-4
-9
-12
-11
-7
-1
4
7
8
10
10
6
5
5
5
3
-1
-5
-9
-17
-26
-31
-36
-38
-33
-24
-17
-16
-13
-4
5
12
19
27
30
26
20
15
13
20
31
33
23
8
-8
-21
-27
-30
-33
-34
-34
-31
-27
-28
-32
-31
-24
-17
-14
-12
-8
0
8
17
27
38
48
59
66
67
62
56
53
50
43
33
20
7
-5
-19
-31
-40
-46
-48
-46
-46
-46
-42
-34
-25
-15
-6
2
14
29
42
47
46
39
30
21
12
3
-3
-14
-22
-26
-29
-33
-35
-36
-34
-30
-27
-22
-13
-3
5
13
23
33
41
45
44
40
33
26
22
14
1
-12
-22
-28
-32
-39
-51
-61
-62
-58
-54
-49
-39
-25
-12
-6
-4
-1
8
24
42
50
46
38
30
23
18
16
15
12
9
10
9
5
1
-1
-5
-9
-11
-8
0
13
26
34
36
35
37
39
37
30
23
13
1
-8
-13
-17
-22
-27
-30
-35
-41
-46
-45
-39
-35
-31
-27
-20
-13
-4
7
15
19
22
28
31
28
23
19
17
16
10
3
-1
-4
-7
-12
-18
-20
-17
-11
-7
-8
-9
-7
-3
1
4
4
4
8
12
12
9
4
0
-3
-7
-11
-11
-12
-15
-15
-12
-12
-13
-10
-2
6
14
20
27
32
32
27
18
10
7
11
17
16
7
0
-1
-2
-9
-18
-24
-24
-18
-11
-6
-6
-8
-8
-10
-14
-14
-11
-10
-13
-16
-19
-23
-22
-16
-11
-9
-7
-5
-1
5
12
18
22
26
31
33
30
26
19
11
8
7
6
4
3
3
3
5
6
8
13
20
23
23
24
23
20
13
2
-8
-16
-20
-24
-32
-42
-47
-43
-36
-33
-29
-21
-12
-8
-5
-1
2
4
11
21
28
27
22
20
21
20
15
11
8
2
-4
-9
-14
-18
-18
-16
-14
-12
-9
-6
-2
1
6
9
17
28
32
27
19
11
3
-4
-12
-18
-23
-31
-37
-38
-38
-37
-34
-12
-22
-30
-38
-44
-46
-45
-43
-40
-34
-25
-13
-4
2
8
11
14
19
25
27
24
18
13
10
4
-4
-13
-17
-18
-16
-17
-21
-23
-18
-11
-9
-10
-7
-1
3
7
14
21
26
33
41
48
49
44
37
31
22
12
5
-5
-22
-43
-59
-65
-66
-65
-60
-50
-40
-31
-20
-10
-2
3
4
6
11
19
27
30
31
33
33
25
16
9
5
4
4
4
4
2
3
10
18
21
17
11
7
6
4
3
5
10
16
17
13
10
9
6
-1
-9
-14
-16
-17
-14
-14
-20
-25
-22
-16
-12
-13
-14
-14
-13
-14
-14
-14
-16
-15
-9
-1
0
0
1
2
-2
-7
-6
-2
3
8
11
10
9
13
20
26
29
29
26
22
19
18
17
14
9
9
9
4
-6
-12
-15
-18
-23
-27
-28
-27
-23
-19
-19
-21
-20
-16
-8
-1
3
10
15
20
27
36
42
44
45
44
35
23
16
9
-3
-18
-26
-30
-34
-41
-47
-50
-52
-53
-49
-36
-23
-14
-9
-2
6
17
27
27
22
17
15
14
10
6
6
8
6
3
0
0
1
6
10
14
18
23
23
17
9
4
3
1
-2
-4
-6
-7
-5
-3
-1
-2
-3
-3
-3
-8
-14
-16
-16
-15
-7
1
6
9
14
17
17
17
18
20
22
25
24
15
2
-7
-10
-10
-12
-18
-27
-35
-40
-45
-49
-54
-55
-48
-39
-30
-20
-8
5
18
31
44
52
54
55
56
57
62
71
77
74
62
50
42
34
16
-7
-29
-49
-65
-78
-89
-98
-100
-95
-85
-74
-64
-55
-46
-35
-23
-13
-4
5
19
33
42
44
46
46
46
46
47
47
48
50
51
48
43
36
29
22
17
14
11
8
1
-3
-1
2
2
0
-3
-6
-12
-22
-30
-33
-39
-48
-54
-54
-50
-42
-34
-31
-32
-28
-19
-5
11
21
23
19
16
17
20
21
24
27
21
10
0
-5
-8
-12
-15
-14
-15
-17
-16
-12
-9
-8
-7
-4
-1
2
5
7
8
10
14
18
22
26
29
31
27
18
7
0
-4
-7
-5
-1
2
8
14
18
17
15
14
13
9
2
-3
-6
-5
-2
0
0
-1
0
4
6
6
8
13
15
10
4
0
-4
-7
-8
-10
-17
-23
-30
-40
-48
-48
-38
-20
-1
8
4
-5
-15
-21
-23
-27
-29
-24
-16
-16
-22
-25
-28
-34
-39
-40
-40
-40
-39
-33
-20
-5
9
27
44
55
62
65
69
74
78
81
81
76
70
65
53
34
18
11
11
12
8
-3
-15
-19
-14
4
27
38
36
28
13
-4
-19
-28
-35
-47
-60
-70
-71
-66
-55
-39
-27
-21
-18
-14
-11
-9
-11
-16
-18
-13
0
12
21
23
18
4
-10
-22
-33
-43
-46
-43
-40
-34
-21
-2
14
26
35
40
41
40
40
34
21
10
8
13
17
20
20
18
14
8
-1
-10
-15
-12
-6
-1
0
3
15
42
77
104
111
97
67
31
3
-17
-36
-58
-82
-103
-110
-107
-99
-93
-85
-76
-68
-56
-33
-8
8
18
27
35
40
42
46
50
49
41
32
26
20
15
12
14
20
26
34
42
47
49
49
45
41
39
37
26
3
-19
-28
-30
-38
-54
-66
-72
-77
-81
-82
-79
-71
-59
-36
-1
29
45
48
45
39
35
34
37
38
35
31
31
38
54
68
62
42
20
0
-20
-39
-55
-74
-95
-115
-124
-121
-114
-105
-94
-83
-69
-55
-40
-24
-3
17
34
49
64
78
87
87
87
90
93
96
100
101
89
68
48
36
28
18
11
10
13
14
17
21
24
24
19
5
-13
-30
-39
-37
-35
-38
-43
-47
-51
-58
-66
-72
-77
-77
-68
-53
-36
-21
-10
-8
-9
-8
-3
4
15
25
35
41
39
35
30
23
15
7
2
0
-2
-6
-10
-16
-18
-12
-4
0
-3
-4
0
1
0
-1
-2
0
4
10
17
21
21
19
12
7
5
5
3
-1
-8
-12
-11
-6
3
13
15
14
18
27
35
40
43
46
46
41
32
19
3
-15
-35
-50
-61
-69
-75
-80
-86
-85
-80
-77
-77
-69
-52
-34
-17
4
26
41
51
59
63
65
69
79
84
81
74
67
61
51
41
38
39
38
28
12
-7
-23
-35
-43
-50
-52
-48
-37
-31
-34
-41
-48
-52
-52
-50
-47
-45
-41
-34
-28
-23
-17
-4
17
40
55
62
65
70
79
84
76
59
39
18
1
-10
-21
-38
-60
-71
-67
-60
-59
-64
-69
-70
-70
-65
-57
-46
-32
-18
-5
6
15
24
34
45
56
64
68
72
77
82
80
72
63
60
58
54
53
55
54
41
26
18
12
1
-10
-16
-18
-22
-27
-29
-29
-29
-29
-34
-49
-65
-73
-77
-80
-80
-73
-62
-54
-50
-45
-39
-32
-26
-22
-20
-18
-13
-6
2
12
27
46
65
87
106
118
120
107
82
54
33
20
8
-7
-26
-41
-53
-65
-82
-95
-97
-91
-79
-57
-21
17
45
62
68
65
55
45
37
36
44
52
50
36
14
-6
-21
-35
-50
-65
-74
-76
-75
-71
-65
-56
-40
-22
-9
-4
0
6
15
24
28
30
34
41
51
54
47
33
24
19
13
7
6
8
3
-4
-10
-10
-9
-7
1
11
16
18
20
22
25
30
39
49
56
57
50
38
24
8
-7
-19
-25
-27
-27
-29
-34
-42
-51
-57
-58
-54
-50
-48
-48
-49
-47
-43
-40
-33
-25
-16
-9
0
19
44
66
82
83
76
65
50
26
0
-22
-40
-54
-67
-79
-93
-101
-94
-72
-37
12
87
174
240
253
217
153
84
21
-43
-118
-180
-216
-233
-245
-255
-250
-224
-189
-148
-102
-59
-23
6
44
98
150
190
222
257
292
308
305
294
272
229
172
116
67
14
-44
-92
-121
-141
-158
-169
-169
-156
-133
-105
-82
-65
-48
-31
-16
-3
5
12
15
22
33
44
54
65
74
76
65
46
25
-1
-33
-57
-70
-79
-87
-95
-101
-101
-97
-84
-61
-42
-31
-25
-18
-9
0
9
18
31
50
65
73
76
72
59
47
38
30
23
18
10
0
-11
-30
-59
-84
-97
-102
-104
-102
-89
-67
-37
-3
22
38
51
69
89
101
104
105
102
99
97
93
91
90
80
56
26
-6
-40
-73
-92
-96
-91
-79
-61
-44
-31
-24
-18
-13
-11
-11
-11
-9
-6
-7
-5
0
4
6
7
9
17
28
37
38
32
24
9
-14
-37
-51
-57
-57
-52
-43
-24
6
47
83
88
67
41
15
-11
-28
-35
-42
-55
-69
-78
-78
-71
-63
-53
-39
-22
-5
16
46
71
85
89
91
97
100
89
70
50
29
11
-4
-14
-15
-10
-6
-5
-8
-11
-8
-3
-1
-4
-9
-19
-31
-42
-49
-55
-60
-59
-52
-44
-38
-27
-14
-3
5
16
32
46
55
57
50
36
20
8
3
10
31
57
76
76
52
10
-26
-46
-54
-56
-59
-67
-80
-86
-85
-80
-63
-39
-19
-7
4
18
30
36
36
39
43
40
29
22
23
28
29
27
22
19
20
21
20
21
28
38
43
36
26
19
8
-14
-40
-64
-82
-92
-90
-80
-67
-53
-36
-20
-5
12
33
47
54
56
59
61
59
55
48
38
26
18
11
1
-4
-3
-2
-10
-25
-41
-52
-53
-45
-37
-33
-33
-35
-35
-33
-32
-29
-21
-10
-2
8
30
53
61
55
40
22
7
0
-7
-19
-36
-47
-40
-19
4
15
6
-10
-18
-13
-4
4
13
22
24
15
4
2
6
8
9
14
21
26
25
20
12
2
-3
-4
0
6
13
15
8
-5
-10
0
16
31
39
38
28
15
1
-15
-29
-35
-31
-24
-20
-20
-24
-32
-38
-32
-17
-5
0
2
3
9
19
25
22
15
9
10
13
12
7
0
-4
-3
0
3
14
37
59
54
14
-31
-56
-61
-57
-58
-64
-69
-72
-73
-65
-48
-28
-8
12
30
39
44
48
51
54
55
52
42
33
40
60
74
70
46
15
-10
-24
-29
-26
-23
-22
-18
-2
17
22
6
-18
-37
-48
-55
-59
-58
-58
-61
-66
-67
-57
-36
-11
5
18
34
55
75
82
76
68
63
62
56
44
33
28
26
27
25
13
-12
-47
-68
-67
-59
-53
-44
-30
-16
-9
-13
-24
-31
-29
-24
-20
-19
-21
-19
-11
4
24
43
54
54
52
53
54
53
46
27
-1
-32
-57
-76
-95
-112
-117
-108
-91
-54
14
89
139
161
163
152
130
103
72
35
-7
-39
-56
-64
-68
-68
-58
-41
-23
-6
9
21
26
24
6
-27
-51
-55
-58
-73
-89
-96
-96
-93
-85
-72
-58
-45
-27
9
63
105
116
100
68
40
38
64
99
146
199
214
173
107
49
25
27
27
6
-47
-128
-190
-209
-209
-212
-212
-194
-160
-117
-62
4
55
78
91
98
88
69
50
29
13
26
62
83
73
43
11
-10
-14
4
31
35
7
-25
-34
-14
14
42
71
107
150
161
124
62
-10
-93
-163
-207
-232
-235
-206
-153
-103
-68
-38
1
48
89
110
119
135
158
173
172
154
120
70
14
-34
-78
-118
-146
-156
-154
-135
-94
-43
3
44
91
140
161
142
104
55
3
-37
-66
-97
-127
-145
-143
-126
-102
-74
-43
-18
-8
-9
-8
6
41
81
110
135
156
150
113
69
23
-25
-69
-100
-111
-83
-24
18
30
37
52
72
81
72
51
17
-21
-47
-57
-50
-18
28
51
39
6
-31
-67
-96
-121
-137
-127
-89
-35
27
76
87
68
46
34
27
21
22
24
15
-17
-60
-73
-42
4
41
65
83
95
91
59
6
-41
-75
-109
-138
-136
-89
-25
26
75
130
158
145
111
76
40
8
-14
-34
-31
10
56
68
44
-1
-49
-79
-88
-89
-92
-95
-94
-86
-73
-53
-29
-10
1
6
6
0
-5
4
24
44
63
78
82
79
67
47
23
-4
-38
-69
-78
-70
-52
-23
12
37
35
12
-19
-46
-56
-49
-32
-11
1
0
-6
-5
8
29
48
59
64
64
56
44
38
38
36
24
0
-18
-17
-7
10
42
73
85
75
44
5
-22
-43
-71
-107
-136
-143
-130
-102
-65
-27
-2
6
3
3
23
51
70
77
72
60
49
46
47
40
13
-32
-87
-131
-150
-145
-132
-123
-110
-84
-57
-35
-12
36
113
167
167
140
120
114
100
67
26
-9
-38
-56
-61
-50
-18
25
54
59
50
35
18
4
3
15
37
58
67
61
48
35
21
11
12
27
54
77
71
38
-5
-57
-121
-171
-192
-196
-197
-172
-105
-29
22
43
32
1
-24
-31
-41
-71
-101
-104
-76
-13
68
128
153
153
129
92
54
20
-3
-21
-41
-51
-43
-22
-4
-3
-15
-18
-2
32
79
126
159
163
139
96
43
-17
-81
-136
-162
-151
-110
-58
0
57
82
66
27
-29
-102
-164
-196
-205
-180
-112
-21
63
127
159
152
119
84
61
46
34
25
24
32
49
68
81
87
95
104
92
48
-3
-46
-91
-146
-191
-209
-201
-171
-129
-83
-40
-2
38
76
102
113
109
93
74
64
62
49
9
-37
-68
-78
-73
-64
-52
-29
-3
40
105
149
152
126
67
-17
-89
-126
-144
-151
-149
-136
-110
-68
-7
62
105
115
116
127
147
154
145
135
115
61
-12
-85
-153
-219
-264
-257
-201
-127
-49
25
81
122
157
175
158
119
83
51
15
-25
-53
-60
-55
-36
5
47
72
79
62
16
-35
-73
-98
-122
-141
-136
-102
-62
-33
-4
38
81
103
102
87
65
42
21
-10
-55
-89
-97
-90
-68
-32
0
19
29
23
6
-5
0
21
47
69
77
74
80
106
132
125
84
34
-13
-57
-81
-93
-109
-133
-161
-172
-152
-116
-75
-35
-4
11
17
29
58
92
119
137
147
147
135
112
74
19
-20
-23
-2
13
1
-30
-64
-93
-117
-117
-82
-44
-28
-27
-24
-11
12
36
46
34
6
-19
-35
-39
-30
0
44
85
105
94
62
25
-9
-48
-96
-130
-140
-135
-118
-83
-29
32
83
116
129
117
90
64
44
28
16
2
-9
-13
-4
11
38
74
93
75
31
-11
-47
-98
-163
-199
-183
-137
-93
-61
-32
5
39
60
77
84
75
57
46
47
42
27
9
1
1
0
-8
-20
-28
-23
-13
-7
-8
-8
-6
-1
6
24
62
123
167
164
126
68
9
-29
-46
-60
-83
-119
-152
-169
-161
-108
-23
28
20
-15
-45
-60
-60
-45
-19
9
34
57
81
100
104
98
96
102
105
92
62
24
-4
-20
-31
-44
-60
-84
-115
-141
-149
-126
-83
-47
-19
13
41
53
63
87
116
124
107
81
49
12
-9
-6
8
18
13
2
-10
-28
-58
-96
-125
-135
-132
-120
-95
-55
-9
29
59
81
92
88
74
49
22
21
52
95
136
161
154
118
62
-27
-140
-217
-235
-224
-198
-151
-90
-33
6
33
54
69
81
89
86
73
62
59
55
41
17
0
-15
-32
-44
-42
-32
-27
-33
-31
-6
30
60
82
95
93
80
68
53
30
-3
-40
-73
-103
-139
-174
-189
-176
-142
-93
-35
12
45
62
66
63
57
55
59
63
59
49
34
20
14
31
70
107
124
118
93
53
9
-24
-44
-61
-87
-119
-140
-135
-107
-75
-46
-21
-3
17
50
84
105
117
127
120
80
7
-82
-149
-183
-196
-195
-171
-124
-64
-9
40
89
127
145
143
121
77
30
0
-21
-42
-64
-81
-84
-60
5
94
152
160
140
115
97
80
61
45
25
-4
-37
-67
-92
-110
-121
-130
-136
-126
-92
-50
-30
-32
-38
-40
-40
-28
4
52
102
144
167
170
155
119
66
10
-43
-98
-150
-186
-196
-187
-167
-115
-25
64
118
140
138
124
109
93
77
63
53
52
50
37
10
-23
-49
-62
-71
-60
-8
58
98
102
76
20
-47
-107
-153
-187
-208
-213
-200
-173
-115
-23
58
99
113
116
117
111
96
83
76
72
64
51
32
6
-24
-51
-70
-76
-55
-11
27
54
80
105
116
103
76
46
16
-14
-40
-56
-71
-86
-95
-87
-67
-45
-28
-20
-17
-9
3
33
72
85
65
31
-10
-60
-101
-124
-128
-108
-64
-13
31
66
80
65
28
-11
-35
-43
-43
-38
-20
19
84
154
183
161
111
40
-47
-122
-162
-172
-165
-147
-114
-58
27
125
181
183
155
115
75
46
31
23
13
-3
-19
-25
-27
-33
-39
-40
-38
-36
-37
-33
-20
-1
11
14
11
10
11
12
4
-8
-15
-18
-17
-4
9
7
-5
-21
-38
-56
-67
-69
-61
-43
-22
-5
7
23
42
61
71
69
60
52
42
25
4
-13
-14
2
11
0
-13
-21
-31
-43
-54
-64
-70
-68
-53
-24
9
38
49
41
29
26
26
25
26
36
49
50
37
22
15
9
1
-6
-12
-14
-15
-18
-24
-32
-36
-35
-28
-20
-14
-9
-6
-7
-11
-13
-17
-19
-10
7
17
10
-4
-15
-19
-17
-12
-12
-11
3
28
57
80
88
81
63
37
11
-9
-22
-27
-26
-22
-19
-15
-2
17
33
35
25
18
19
23
19
0
-21
-37
-44
-50
-58
-62
-57
-49
-38
-24
-14
-4
4
16
27
36
45
56
59
52
37
19
4
-12
-32
-45
-48
-48
-42
-32
-24
-18
-13
-5
4
6
1
-2
-7
-12
-12
-5
1
13
34
52
54
37
10
-4
5
26
40
46
43
31
13
-4
-20
-33
-45
-54
-58
-48
-21
7
25
33
31
15
-9
-23
-22
-10
6
19
30
40
43
39
30
18
7
-2
-11
-20
-29
-36
-42
-47
-49
-45
-36
-25
-10
1
7
10
12
13
13
9
-1
-19
-28
-26
-16
-4
6
12
15
16
18
20
17
10
6
7
11
14
9
2
0
-2
-2
2
9
14
16
20
31
44
48
41
25
5
-10
-19
-26
-40
-55
-62
-64
-63
-54
-35
-10
12
34
50
51
40
30
22
14
6
-5
-20
-29
-31
-28
-22
-15
-6
2
6
0
-7
-12
-8
-1
3
4
3
1
0
3
4
4
5
8
15
19
19
17
18
21
23
20
13
4
-3
-7
-11
-18
-21
-18
-12
-7
-5
-3
0
4
8
8
6
3
2
-2
-14
-26
-29
-21
-8
0
7
13
19
24
26
25
21
15
17
26
31
26
18
8
0
-2
-1
-3
-8
-13
-13
-12
-17
-25
-32
-36
-37
-37
-37
-32
-19
-4
3
2
-4
-10
-12
-13
-11
-4
2
6
9
14
17
19
22
25
24
19
12
8
7
3
-1
-2
1
6
5
0
-4
-9
-12
-15
-19
-21
-19
-17
-14
-9
-3
3
12
22
34
42
39
30
21
16
13
15
17
10
-2
-11
-12
-13
-17
-22
-22
-19
-17
-14
-10
-8
-7
-6
-5
-3
0
4
9
16
17
16
16
14
11
8
3
-2
-3
-6
-14
-21
-23
-22
-20
-18
-15
-11
-7
-2
6
15
20
26
33
36
30
18
10
8
6
0
-9
-19
-29
-37
-45
-54
-58
-49
-34
-21
-12
-6
0
9
20
31
40
49
61
67
68
64
55
42
33
28
25
18
2
-13
-17
-12
-8
-11
-20
-29
-35
-40
-46
-49
-50
-47
-42
-37
-30
-21
-10
-1
7
10
10
11
12
5
-3
-9
-12
-15
-20
-25
-26
-24
-19
-10
0
7
13
16
18
21
25
27
32
41
48
49
45
39
31
20
13
11
8
-1
-8
-12
-15
-19
-23
-23
-19
-15
-10
-4
1
4
6
7
7
7
10
18
21
17
10
5
0
-5
-12
-18
-20
-20
-25
-38
-48
-50
-45
-37
-27
-17
-9
-3
4
15
23
27
31
38
41
38
29
21
16
10
3
0
0
-3
-6
-8
-10
-11
-7
-2
-2
-6
-11
-18
-25
-30
-30
-26
-17
-4
12
29
37
35
31
28
25
21
17
10
0
-8
-13
-18
-24
-27
-24
-19
-14
-9
-4
-1
0
4
11
14
14
17
23
27
22
12
7
7
3
-3
-9
-11
-13
-15
-19
-23
-25
-21
-16
-13
-13
-10
-6
-2
2
7
9
10
13
17
19
18
11
4
0
0
0
1
0
-1
-2
-2
-5
-10
-13
-12
-7
-3
0
2
4
4
4
2
2
6
11
14
16
13
10
8
5
0
-7
-13
-16
-17
-19
-24
-27
-24
-16
-7
2
9
12
12
11
9
8
8
11
15
20
22
21
21
19
10
0
-9
-17
-29
-42
-51
-57
-62
-63
-57
-44
-28
-13
2
19
32
40
47
54
63
69
70
64
52
38
26
16
7
0
-3
-5
-4
-4
-10
-21
-26
-23
-19
-15
-8
1
8
12
13
15
12
7
2
-1
-7
-15
-21
-24
-28
-36
-43
-46
-47
-47
-45
-43
-39
-32
-20
-6
4
9
13
17
21
24
27
29
35
44
52
53
46
37
31
27
21
15
8
0
-6
-9
-11
-16
-20
-20
-16
-11
-7
-4
-3
-1
1
2
0
0
2
7
9
7
4
4
4
6
19
41
61
68
59
33
3
-21
-41
-61
-87
-108
-115
-115
-114
-112
-105
-93
-79
-58
-31
-7
10
27
47
69
83
88
88
85
83
82
79
73
63
54
50
46
40
30
17
2
-8
-15
-22
-30
-34
-30
-26
-25
-27
-25
-20
-17
-13
-8
-3
-1
0
-1
-6
-9
-8
-6
-5
-5
-4
0
0
-1
-2
-4
-7
-8
-4
0
-1
-3
-2
1
7
15
24
27
22
10
-2
-13
-22
-27
-27
-26
-23
-21
-19
-19
-18
-13
-6
4
21
35
42
43
48
60
68
64
54
39
17
-7
-25
-38
-54
-73
-83
-82
-75
-70
-66
-60
-52
-44
-31
-13
3
21
40
55
63
64
62
57
48
35
21
9
0
-2
-4
-9
-14
-19
-23
-23
-22
-21
-17
-11
-5
2
10
17
26
41
58
61
49
41
39
38
32
19
3
-13
-30
-45
-56
-62
-64
-63
-59
-55
-49
-40
-27
-12
2
15
27
36
43
48
52
47
39
33
29
24
15
7
2
1
1
-3
-11
-14
-12
-9
-6
-3
-2
-2
-2
-3
-8
-14
-18
-18
-16
-16
-16
-15
-17
-22
-26
-27
-24
-21
-18
-13
-9
-7
-3
6
17
22
21
21
24
30
36
39
39
39
46
57
65
59
40
20
4
-6
-17
-31
-45
-52
-50
-47
-50
-54
-51
-39
-23
-8
2
7
2
-4
-10
-18
-24
-26
-24
-29
-42
-50
-48
-42
-36
-28
-20
-14
-6
3
11
16
23
41
71
94
102
100
95
87
76
66
57
49
43
38
33
21
6
-6
-19
-32
-41
-47
-51
-51
-47
-42
-41
-43
-42
-35
-27
-19
-10
-3
-1
0
3
9
8
8
13
15
10
6
7
8
6
2
-1
-7
-13
-15
-16
-20
-22
-21
-12
2
13
18
22
26
34
44
48
47
44
37
25
10
-4
-19
-39
-57
-66
-68
-67
-65
-62
-59
-60
-65
-66
-58
-45
-31
-16
3
22
38
53
76
108
133
140
136
120
93
67
45
24
0
-27
-50
-61
-59
-52
-49
-55
-65
-71
-75
-76
-73
-64
-51
-37
-20
-5
5
13
22
26
20
10
7
9
9
7
7
9
13
23
35
45
55
68
79
79
70
62
54
42
28
17
5
-8
-20
-26
-26
-31
-41
-52
-60
-64
-65
-63
-56
-47
-35
-24
-16
-11
-4
6
17
27
39
48
50
49
52
57
57
53
51
49
38
20
2
-11
-26
-42
-53
-57
-58
-59
-61
-66
-70
-72
-68
-57
-44
-33
-21
-5
11
27
41
54
69
90
107
112
106
95
81
66
51
36
18
-5
-28
-48
-68
-92
-118
-131
-129
-124
-121
-117
-108
-93
-75
-54
-31
-10
8
29
47
61
72
79
86
92
93
89
81
70
59
48
38
29
25
22
18
16
15
16
16
14
10
6
3
4
7
6
-3
-16
-24
-28
-31
-32
-29
-21
-12
-3
2
5
8
13
14
7
-3
-10
-11
-9
-10
-16
-27
-35
-38
-36
-36
-47
-59
-64
-67
-69
-69
-66
-59
-49
-35
-18
-6
3
13
26
39
49
55
60
66
73
74
69
62
62
67
66
53
37
26
15
4
0
4
7
3
-4
-12
-19
-24
-24
-24
-26
-29
-32
-37
-40
-40
-39
-37
-35
-32
-28
-21
-18
-20
-19
-14
-9
-2
8
18
24
27
29
28
29
35
42
50
53
51
44
37
29
24
20
13
9
13
18
19
17
15
9
-2
-15
-24
-32
-40
-49
-55
-58
-60
-60
-57
-50
-42
-33
-26
-19
-6
9
19
23
26
27
25
14
-2
-14
-19
-23
-27
-29
-28
-22
-15
-9
-7
-7
-1
9
24
44
62
78
87
85
76
66
55
45
38
29
14
2
-3
-12
-26
-40
-52
-65
-81
-92
-95
-92
-84
-73
-58
-41
-25
-8
10
28
38
43
43
42
42
45
46
40
26
14
5
0
-2
-5
-9
-8
-2
5
9
7
6
9
15
22
27
31
33
31
28
25
22
20
24
30
33
31
28
23
10
-13
-35
-46
-52
-56
-61
-65
-67
-65
-63
-66
-70
-66
-54
-40
-26
-9
5
18
35
53
65
64
57
53
54
52
48
42
32
19
9
3
-2
-11
-22
-31
-36
-37
-33
-23
-13
-5
2
10
13
16
25
37
41
36
27
20
11
2
-7
-17
-29
-40
-52
-68
-78
-76
-69
-56
-39
-25
-17
-14
-14
-11
-4
4
16
35
50
55
54
54
55
51
41
29
14
-2
-17
-25
-30
-35
-39
-36
-27
-16
-1
16
29
36
41
48
55
57
59
61
57
48
41
36
31
22
5
-15
-34
-47
-57
-69
-79
-80
-77
-70
-63
-58
-50
-38
-24
-7
9
21
31
45
62
68
66
63
62
57
48
41
36
28
15
-3
-23
-43
-61
-77
-88
-92
-91
-89
-85
-76
-59
-33
1
35
59
71
70
59
46
38
35
31
23
11
-1
-8
-11
-14
-20
-24
-22
-17
-14
-16
-19
-21
-19
-16
-10
-5
2
13
28
48
64
67
62
50
35
20
7
-5
-19
-29
-33
-32
-24
-4
14
26
31
32
34
36
37
35
29
18
9
2
-7
-19
-30
-37
-43
-53
-59
-58
-54
-47
-40
-36
-33
-24
-10
2
7
9
14
26
33
33
31
27
20
12
7
3
-2
-6
-5
-3
-2
-4
-8
-12
-16
-18
-21
-23
-23
-21
-15
-10
-7
-1
7
11
7
2
-1
-1
8
19
24
27
30
34
36
35
33
34
32
27
22
19
14
5
-2
-4
-6
-10
-13
-15
-15
-16
-18
-19
-15
-7
1
5
3
-3
-8
-11
-14
-17
-19
-19
-18
-15
-11
-11
-16
-23
-27
-27
-25
-23
-16
0
27
51
61
61
56
52
44
30
12
-7
-26
-41
-48
-49
-45
-40
-33
-28
-30
-35
-33
-21
-8
-7
-16
-22
-16
1
24
45
55
52
46
37
21
6
-3
-11
-19
-27
-31
-30
-23
-14
-4
0
1
2
9
26
47
67
78
78
68
54
46
43
45
44
33
11
-11
-28
-36
-35
-28
-23
-28
-43
-57
-65
-71
-79
-85
-82
-71
-59
-44
-23
0
23
48
66
70
66
64
67
70
75
88
105
112
101
72
37
9
-8
-29
-61
-93
-116
-130
-140
-145
-139
-122
-101
-82
-67
-52
-38
-26
-8
15
36
48
58
69
78
78
73
70
74
91
113
127
126
106
73
42
21
8
2
2
0
-8
-26
-57
-90
-107
-108
-112
-119
-120
-115
-108
-102
-95
-82
-66
-47
-26
-6
8
21
34
48
64
77
86
89
88
87
86
87
93
106
118
114
93
70
51
36
18
0
-18
-33
-41
-43
-48
-59
-69
-80
-93
-105
-107
-100
-80
-49
-25
-15
-14
-12
0
15
25
30
36
41
45
49
56
59
48
29
7
-17
-46
-65
-68
-64
-56
-44
-25
0
20
32
36
36
35
36
32
22
12
6
2
-3
-11
-21
-32
-43
-55
-66
-72
-73
-68
-56
-36
-13
11
39
69
100
122
133
131
121
107
92
73
57
46
39
37
42
48
45
28
3
-20
-43
-69
-97
-117
-125
-131
-142
-156
-162
-156
-141
-116
-85
-56
-27
2
32
63
85
93
93
90
83
74
67
64
61
56
47
36
26
17
5
-4
-9
-8
-6
-3
0
1
1
5
12
17
20
20
14
0
-12
-21
-22
-21
-23
-25
-29
-34
-41
-46
-47
-46
-46
-46
-41
-30
-14
4
25
40
48
51
46
33
20
16
20
23
23
23
20
13
4
-3
-8
-8
-11
-21
-38
-55
-62
-57
-49
-43
-36
-28
-17
-1
17
36
46
47
49
64
84
93
90
86
80
68
48
24
0
-14
-22
-27
-33
-41
-50
-56
-51
-35
-21
-18
-19
-17
-15
-19
-23
-23
-22
-24
-28
-37
-49
-53
-50
-45
-41
-34
-25
-17
-11
-3
10
28
46
59
70
74
68
57
49
39
24
10
5
10
15
13
3
-5
-11
-16
-26
-40
-55
-61
-58
-51
-43
-35
-26
-15
-2
8
16
22
32
47
58
61
61
60
64
66
61
51
38
23
9
2
-3
-11
-19
-24
-28
-33
-40
-47
-52
-53
-50
-44
-37
-30
-20
-8
0
3
6
11
15
15
12
9
10
13
13
7
-1
-6
-7
-1
14
35
55
69
67
50
29
9
-7
-26
-50
-68
-72
-69
-70
-76
-79
-75
-66
-59
-54
-45
-32
-19
-5
11
27
38
43
44
42
38
36
39
49
60
68
72
68
54
33
15
7
6
9
22
36
44
43
31
5
-21
-35
-41
-48
-55
-56
-55
-56
-56
-56
-53
-48
-37
-18
0
14
26
36
42
37
28
26
28
36
47
49
40
26
12
0
-4
-4
-7
-19
-37
-49
-45
-24
10
44
55
36
7
-23
-52
-73
-84
-93
-103
-104
-83
-45
-10
12
26
36
44
49
54
61
62
56
47
36
26
19
18
19
19
19
21
22
22
21
18
12
7
0
-11
-23
-32
-33
-27
-15
-4
0
2
4
2
0
9
34
56
61
46
22
0
-9
-3
10
15
10
-2
-27
-65
-99
-119
-130
-135
-130
-114
-89
-63
-39
-16
3
20
37
52
61
65
71
85
105
120
115
92
64
37
10
-13
-31
-43
-48
-45
-32
-9
12
24
24
19
16
19
27
41
52
51
42
37
43
51
48
35
10
-34
-81
-108
-118
-113
-94
-69
-52
-40
-33
-36
-49
-65
-81
-94
-102
-94
-73
-49
-27
-7
9
26
44
66
90
104
107
106
105
103
94
79
63
48
34
22
16
15
14
11
9
7
4
8
24
38
38
30
16
-3
-23
-34
-40
-44
-49
-52
-53
-56
-64
-73
-74
-67
-55
-40
-24
-9
2
10
19
34
46
46
37
23
12
6
4
2
0
-4
-8
-14
-15
-4
12
22
23
19
6
-15
-32
-38
-38
-24
5
26
24
9
-5
-17
-23
-19
-10
-4
0
3
7
9
8
8
7
6
2
3
12
19
19
21
24
24
21
18
17
20
25
23
15
5
0
1
2
-1
-8
-18
-29
-34
-30
-20
-5
7
13
12
9
3
-1
-6
-9
-11
-16
-26
-31
-28
-18
-9
-7
-5
3
22
44
53
42
21
0
-18
-36
-46
-50
-56
-67
-83
-90
-78
-50
-16
16
43
59
70
74
73
68
61
56
55
52
48
45
38
25
9
-1
-5
-6
-13
-23
-32
-41
-49
-52
-50
-48
-44
-37
-24
-5
14
27
32
28
19
13
13
13
9
-1
-15
-24
-29
-29
-23
-15
-10
-4
0
0
-2
-1
1
5
14
25
33
34
28
18
11
11
17
24
30
35
38
32
12
-18
-44
-58
-69
-78
-80
-75
-65
-52
-33
-10
8
22
33
40
46
49
46
39
34
34
34
26
12
-1
-5
-2
-1
-2
-4
-10
-16
-15
-8
0
11
25
34
31
22
20
27
34
31
15
-7
-22
-26
-22
-20
-20
-15
-3
5
1
-15
-37
-55
-68
-76
-83
-86
-83
-78
-68
-45
-11
25
52
66
71
70
63
53
45
39
36
36
33
27
19
10
0
-6
-13
-17
-18
-21
-31
-42
-43
-35
-21
-9
-5
-11
-16
-12
-3
-1
-5
-4
9
29
60
105
139
138
113
86
61
36
14
0
-9
-20
-29
-34
-38
-46
-56
-65
-71
-76
-77
-72
-66
-58
-46
-30
-17
-12
-11
-12
-7
9
26
31
25
12
-2
-12
-16
-12
-3
0
0
0
5
18
33
40
37
32
20
6
0
6
16
22
25
24
18
7
2
7
18
30
37
34
23
9
-1
-11
-21
-30
-33
-30
-26
-20
-11
-4
1
3
-3
-17
-32
-43
-52
-54
-41
-20
0
15
29
41
40
29
17
9
3
-1
-4
-5
-4
-2
2
3
-1
-9
-8
2
11
14
12
6
-3
-12
-17
-22
-29
-28
-17
-3
7
15
25
36
38
30
21
14
5
0
-3
-5
1
17
30
40
52
61
62
50
19
-26
-62
-75
-71
-64
-63
-68
-70
-67
-56
-42
-38
-40
-40
-34
-20
3
30
57
83
107
123
127
117
95
67
41
23
8
-10
-38
-61
-74
-80
-82
-76
-60
-34
-9
8
19
22
22
21
23
31
38
37
27
7
-19
-39
-47
-50
-51
-49
-47
-40
-29
-10
14
30
34
30
26
24
18
9
3
2
0
-10
-21
-24
-21
-22
-27
-27
-19
0
26
55
77
85
81
68
47
26
15
6
-7
-26
-49
-72
-87
-86
-69
-45
-25
-7
17
38
49
52
47
31
6
-18
-34
-45
-51
-47
-31
-12
5
25
45
60
65
61
57
56
55
49
41
37
35
30
15
-10
-42
-66
-73
-72
-69
-63
-56
-48
-41
-32
-24
-23
-26
-25
-20
-22
-31
-36
-31
-18
-4
10
28
47
67
87
93
84
71
58
46
34
25
19
13
2
-8
-19
-33
-41
-34
-21
-16
-18
-22
-28
-40
-54
-66
-76
-82
-75
-51
-17
22
64
90
97
94
83
66
49
36
21
-8
-53
-83
-79
-59
-42
-27
-7
17
35
41
41
41
45
50
60
78
94
100
90
58
9
-33
-64
-89
-110
-120
-116
-106
-94
-75
-49
-29
-22
-18
-12
-3
4
11
15
15
15
16
16
12
10
18
27
28
20
16
23
35
40
39
30
5
-22
-43
-60
-73
-80
-75
-58
-33
4
51
87
109
127
127
95
52
25
14
4
-20
-52
-76
-86
-78
-55
-28
-4
11
18
17
9
0
-8
-9
5
31
55
73
81
78
66
55
47
41
34
22
8
-7
-30
-62
-92
-108
-114
-114
-106
-88
-68
-53
-38
-16
6
20
24
22
14
6
5
9
10
5
-2
-10
-18
-18
-2
18
29
30
32
39
43
44
47
40
14
-18
-44
-60
-66
-62
-48
-26
4
42
80
103
102
84
55
24
0
-12
-14
-12
-17
-27
-41
-59
-75
-73
-54
-35
-24
-19
-13
-1
13
30
46
59
63
63
64
54
28
3
-4
1
4
2
-1
-9
-21
-36
-46
-42
-24
-8
-8
-10
1
22
37
48
61
71
75
72
61
38
4
-31
-65
-91
-103
-101
-94
-86
-77
-67
-60
-60
-65
-69
-62
-40
-6
37
79
94
78
52
26
4
-10
-17
-25
-33
-32
-15
12
40
63
80
80
63
45
42
52
58
57
49
42
38
36
33
26
16
2
-15
-30
-28
-7
21
47
70
83
67
15
-52
-110
-155
-192
-217
-218
-192
-153
-103
-47
0
35
66
89
99
91
76
65
58
52
43
31
18
6
-1
-2
0
-3
-9
-18
-28
-34
-31
-20
-9
1
15
32
52
72
85
84
76
66
51
33
22
22
17
-1
-17
-20
-21
-34
-59
-86
-113
-128
-111
-64
-24
-7
8
43
75
66
23
-22
-64
-107
-132
-129
-107
-70
-20
16
33
49
70
89
94
85
72
59
50
49
56
67
78
86
84
75
63
42
12
-12
-14
3
18
11
-10
-35
-62
-102
-151
-177
-155
-103
-40
16
52
61
50
15
-32
-54
-38
-11
8
22
32
31
12
-12
-20
-11
-11
-25
-31
-13
12
24
24
16
3
-11
-18
-6
30
79
119
134
123
84
28
-18
-48
-73
-85
-71
-36
6
48
73
69
38
-8
-60
-114
-157
-172
-159
-129
-85
-31
21
61
82
85
80
79
87
93
83
65
50
38
21
0
-19
-30
-34
-34
-35
-35
-30
-24
-29
-46
-59
-57
-39
-9
24
47
52
46
38
26
6
-16
-33
-27
3
29
37
41
39
22
-5
-28
-41
-49
-53
-42
-21
-7
-5
-2
0
-1
-7
0
30
72
100
100
71
35
15
10
0
-23
-54
-71
-70
-58
-40
-23
-13
-9
-6
4
14
13
4
-8
-25
-43
-54
-52
-33
8
55
82
89
83
63
31
-3
-35
-58
-69
-67
-54
-35
-15
14
62
106
122
111
72
9
-47
-73
-79
-83
-84
-72
-54
-42
-29
-8
8
14
17
32
61
88
93
78
55
36
27
27
33
35
25
2
-28
-59
-81
-96
-108
-113
-108
-88
-54
-29
-15
0
16
29
38
38
30
32
57
91
110
106
79
32
-18
-61
-96
-121
-123
-85
-20
35
61
66
64
51
24
-5
-26
-27
-13
0
10
23
37
51
61
58
35
0
-33
-64
-96
-116
-102
-62
-19
12
29
35
38
40
43
44
41
38
40
47
53
51
39
27
14
-3
-19
-27
-29
-34
-45
-57
-60
-60
-65
-75
-81
-78
-55
10
102
173
200
178
109
17
-62
-111
-134
-149
-157
-143
-106
-50
10
52
70
73
66
54
46
46
48
56
74
84
71
41
-6
-70
-129
-162
-165
-136
-89
-53
-33
-7
33
76
96
94
92
100
119
138
145
140
133
122
91
39
-24
-107
-206
-272
-280
-252
-193
-95
3
65
91
98
98
94
91
85
69
51
40
31
13
-10
-35
-53
-61
-66
-73
-84
-90
-81
-60
-23
26
76
108
111
89
52
15
-11
-34
-61
-83
-83
-61
-19
47
132
190
198
169
106
9
-88
-162
-214
-241
-232
-181
-97
10
116
175
178
145
87
13
-44
-69
-77
-84
-79
-56
-21
16
51
75
85
85
80
64
37
8
-15
-28
-25
-10
0
2
1
0
-16
-43
-67
-81
-86
-83
-64
-25
25
65
80
81
83
82
65
36
8
-8
-16
-19
-20
-25
-26
-19
-7
9
30
45
48
37
19
4
-3
-12
-25
-37
-46
-44
-31
-13
-4
-4
-7
-14
-32
-53
-62
-57
-46
-35
-29
-23
-16
-11
-7
-3
4
19
40
70
107
133
135
121
93
52
6
-32
-58
-73
-87
-97
-94
-79
-55
-26
6
43
76
83
56
12
-28
-59
-84
-95
-72
-26
14
55
107
142
139
111
70
26
-5
-25
-43
-62
-78
-82
-68
-42
-9
27
55
63
55
28
-11
-49
-65
-62
-49
-35
-24
-18
-17
-9
15
37
44
49
53
45
21
-9
-36
-70
-117
-155
-169
-163
-118
-27
67
127
154
161
155
134
105
77
51
31
17
6
-12
-37
-49
-43
-34
-26
-16
-11
-14
-17
-15
-11
-11
-7
7
36
71
86
72
43
7
-30
-58
-65
-59
-49
-35
-12
19
43
33
-6
-43
-59
-70
-103
-148
-162
-127
-73
-6
85
168
201
178
121
58
2
-45
-81
-104
-116
-109
-86
-51
-4
48
79
84
82
79
73
63
55
49
46
48
67
98
121
126
114
79
20
-59
-163
-261
-297
-284
-265
-229
-143
-35
49
103
140
164
155
110
56
19
13
40
81
115
119
84
36
-5
-40
-67
-77
-61
-32
-9
22
76
107
83
22
-51
-124
-174
-192
-180
-134
-62
2
45
71
74
50
19
-8
-36
-66
-82
-67
-27
17
55
82
88
80
74
81
92
92
78
59
34
1
-28
-46
-55
-67
-78
-66
-23
33
90
133
134
89
20
-67
-166
-242
-272
-266
-227
-142
-20
102
193
242
249
215
159
100
34
-44
-107
-138
-136
-101
-44
10
40
49
54
63
64
55
40
28
19
10
0
-8
-18
-21
-8
12
24
24
14
-3
-28
-46
-36
4
59
101
101
48
-27
-92
-142
-186
-220
-226
-200
-157
-74
44
129
149
136
111
80
55
44
41
33
19
14
26
46
69
91
92
64
21
-23
-61
-83
-90
-92
-93
-90
-81
-66
-55
-44
-24
4
38
71
92
95
84
67
51
36
27
23
21
16
5
-8
-17
-23
-33
-49
-57
-41
-5
30
57
69
54
15
-37
-89
-137
-176
-181
-149
-95
-27
46
113
154
155
128
102
88
80
73
58
33
7
-13
-31
-48
-59
-65
-68
-65
-52
-37
-34
-38
-37
-28
-17
-3
9
21
29
32
33
38
51
70
84
85
68
26
-32
-72
-85
-94
-110
-115
-95
-61
-32
-12
3
16
26
34
39
41
39
36
34
32
31
29
25
25
22
13
4
9
27
43
46
38
28
21
14
2
-20
-41
-52
-50
-41
-32
-29
-31
-36
-42
-38
-15
13
33
39
38
29
8
-18
-50
-84
-106
-104
-67
-1
64
103
113
108
101
88
63
31
1
-23
-43
-51
-45
-28
-11
-4
0
5
5
0
-6
-7
-7
-11
-19
-26
-28
-28
-28
-30
-34
-33
-26
-13
1
7
10
13
16
17
18
24
31
32
30
27
21
15
5
-8
-17
-19
-18
-14
-6
-2
-9
-21
-26
-17
-3
6
15
23
27
26
22
19
17
14
10
8
5
0
-2
-2
-3
-4
-4
-4
-5
-6
-6
-9
-17
-22
-20
-19
-19
-17
-16
-17
-19
-18
-12
-2
7
15
23
30
32
28
23
16
6
-5
-14
-19
-14
-3
5
8
6
6
8
4
-1
-2
2
6
6
7
16
34
50
58
55
42
19
-4
-22
-32
-36
-37
-40
-48
-54
-55
-58
-62
-61
-55
-46
-30
-1
26
46
56
59
53
41
30
29
36
39
36
31
30
32
33
24
8
-3
-12
-25
-38
-45
-46
-46
-45
-43
-38
-31
-25
-20
-15
-8
-1
3
6
10
10
9
9
11
11
12
12
10
9
12
13
11
5
-2
-9
-12
-15
-17
-14
-7
2
13
20
25
27
26
24
19
13
10
10
10
12
18
21
16
8
-4
-21
-37
-45
-47
-50
-53
-54
-50
-40
-23
0
26
52
70
79
78
62
40
23
12
0
-13
-23
-28
-30
-30
-32
-37
-38
-31
-17
-6
-1
1
4
8
9
8
9
12
14
17
26
35
37
35
29
19
6
-10
-29
-43
-52
-57
-60
-60
-54
-42
-28
-15
-5
1
5
7
11
19
25
27
26
29
34
36
35
34
31
27
21
12
2
-4
-9
-15
-23
-28
-28
-24
-20
-15
-10
-3
3
10
16
22
25
26
28
27
22
16
8
1
-3
-7
-13
-20
-26
-28
-30
-33
-33
-26
-15
-4
1
7
14
17
20
23
25
22
20
19
18
16
16
17
16
13
7
-1
-10
-18
-21
-21
-24
-27
-27
-25
-23
-21
-18
-13
-8
-1
4
10
14
19
24
27
26
22
12
1
-6
-10
-12
-14
-17
-21
-23
-25
-26
-20
-12
-3
8
18
20
15
10
9
10
11
13
16
17
11
2
-3
-2
0
0
1
0
-1
-1
-2
-8
-12
-12
-10
-10
-9
-5
1
8
11
9
3
-3
-5
0
5
6
4
2
1
2
0
0
0
2
5
8
5
-1
-6
-11
-17
-21
-20
-16
-12
-6
0
3
4
7
18
27
30
28
24
20
13
4
-4
-13
-22
-28
-30
-30
-31
-29
-22
-13
-2
11
25
35
42
50
55
50
37
22
5
-19
-50
-73
-80
-80
-75
-66
-54
-42
-28
-12
3
14
21
25
31
42
50
54
54
51
44
36
29
22
15
8
1
-3
-4
-2
0
2
4
7
10
10
4
-6
-20
-31
-33
-31
-28
-26
-25
-22
-19
-14
-9
-6
-3
2
9
14
18
20
20
20
17
12
5
-3
-6
-6
-9
-16
-21
-18
-10
-1
11
25
36
37
34
30
23
13
7
5
0
-7
-14
-20
-27
-35
-38
-38
-39
-39
-35
-28
-24
-23
-19
-8
2
9
15
22
27
33
40
44
43
43
42
37
28
19
9
0
-6
-11
-14
-20
-23
-24
-26
-27
-23
-17
-10
-6
-5
-2
1
1
1
7
16
18
14
13
10
4
-3
-9
-11
-13
-16
-19
-21
-20
-17
-14
-12
-11
-7
1
18
38
56
66
67
59
46
30
13
0
-12
-26
-44
-61
-73
-79
-80
-77
-71
-63
-51
-35
-22
-15
-5
9
21
26
27
28
32
34
36
41
48
54
59
63
62
56
46
37
31
25
15
3
-5
-10
-13
-17
-24
-32
-34
-30
-25
-23
-20
-16
-13
-11
-7
-1
0
0
4
10
10
8
7
6
3
0
2
3
1
0
2
6
7
7
7
9
9
5
-4
-19
-34
-46
-55
-63
-73
-78
-73
-65
-55
-39
-21
-4
9
18
24
30
38
48
57
63
64
63
58
47
31
21
18
14
6
-4
-15
-18
-13
-5
1
7
13
21
27
28
26
22
16
9
2
-4
-11
-15
-17
-19
-23
-28
-30
-30
-28
-24
-15
-8
-5
-1
3
5
6
5
2
-1
-3
-3
-2
-1
1
3
2
0
6
14
15
10
2
-6
-14
-20
-23
-26
-30
-30
-23
-16
-13
-11
-7
-2
1
0
1
4
10
16
21
23
20
15
13
15
19
22
27
33
38
39
41
38
31
21
7
-12
-29
-41
-50
-58
-67
-72
-68
-61
-55
-50
-43
-34
-22
-8
6
19
26
31
37
46
51
53
52
53
63
78
87
89
85
80
70
50
22
-11
-50
-78
-88
-91
-100
-116
-125
-121
-112
-102
-90
-73
-54
-29
0
23
33
40
51
66
77
83
86
87
87
88
87
78
60
37
16
0
-14
-23
-30
-34
-37
-37
-34
-29
-30
-29
-22
-17
-13
-8
-2
2
2
0
0
0
-2
-5
-9
-13
-14
-13
-12
-15
-18
-17
-14
-8
0
3
7
15
25
36
43
45
47
46
37
21
5
-5
-13
-23
-35
-43
-46
-46
-45
-44
-42
-39
-31
-17
-4
1
6
13
21
28
36
42
43
41
35
23
8
-3
-10
-13
-11
-6
-2
-2
-5
-8
-15
-23
-28
-26
-21
-18
-15
-9
-4
0
4
6
8
9
14
19
20
22
32
43
50
47
38
24
10
-2
-12
-20
-26
-28
-30
-33
-35
-36
-35
-32
-27
-18
-8
-3
-2
1
12
24
31
35
36
36
35
34
33
31
27
21
15
7
-5
-18
-27
-31
-32
-32
-34
-37
-37
-30
-22
-17
-12
-4
3
8
14
21
29
38
44
44
35
24
18
10
-3
-18
-27
-32
-36
-41
-45
-45
-41
-35
-25
-17
-14
-10
-1
6
8
8
9
10
9
8
12
17
23
28
23
12
5
10
25
41
50
53
52
48
42
37
33
22
6
-5
-18
-37
-57
-77
-90
-94
-93
-88
-85
-81
-74
-66
-57
-46
-29
-8
9
23
37
48
56
62
72
82
86
89
92
96
102
104
103
93
73
47
26
11
-2
-19
-41
-61
-75
-81
-84
-87
-87
-82
-74
-60
-46
-34
-22
-17
-15
-11
-4
0
0
0
0
0
1
5
8
6
2
0
-6
-12
-17
-17
-14
-11
-5
7
16
22
34
52
74
94
111
120
122
119
111
92
63
26
-15
-49
-71
-89
-111
-141
-165
-172
-167
-159
-151
-136
-113
-87
-57
-21
8
24
36
55
79
96
104
106
106
102
94
85
75
63
52
44
36
28
25
29
33
36
36
33
30
27
20
12
0
-11
-16
-15
-12
-13
-18
-24
-30
-40
-52
-62
-67
-65
-62
-68
-81
-90
-87
-76
-65
-55
-46
-35
-24
-9
10
25
35
49
66
79
82
81
77
69
57
49
45
41
34
22
6
-8
-18
-24
-35
-46
-49
-46
-41
-36
-30
-24
-22
-24
-26
-25
-22
-18
-10
5
23
39
55
70
75
70
61
53
42
23
7
-2
-14
-33
-53
-68
-73
-72
-69
-66
-63
-55
-42
-35
-32
-29
-21
-9
5
25
45
60
71
79
82
76
65
55
46
38
32
31
30
27
27
34
43
47
47
42
30
14
3
-3
-12
-27
-43
-59
-75
-89
-99
-103
-105
-108
-108
-101
-90
-79
-66
-49
-31
-16
-1
13
25
37
49
57
61
66
69
69
65
62
61
53
46
43
38
27
15
10
10
10
8
5
4
4
6
9
8
2
-3
-5
-9
-17
-23
-26
-24
-20
-17
-19
-21
-15
3
25
42
51
47
31
11
-6
-21
-35
-53
-68
-74
-76
-83
-90
-88
-83
-77
-71
-60
-45
-32
-21
-4
19
44
67
88
103
109
104
92
80
66
52
39
31
26
23
15
2
-7
-11
-15
-21
-26
-26
-24
-20
-16
-14
-11
-8
-3
0
1
3
7
16
26
32
35
35
31
20
12
9
5
-1
-7
-13
-19
-29
-42
-53
-60
-63
-61
-56
-47
-35
-24
-17
-16
-14
-6
2
8
13
21
29
33
35
34
28
22
23
26
23
15
10
9
7
1
-9
-18
-21
-19
-13
-8
-3
6
20
38
57
69
70
61
46
34
27
21
11
0
-13
-28
-42
-55
-69
-86
-102
-110
-110
-104
-91
-75
-60
-49
-38
-23
-6
9
22
33
42
45
45
48
49
51
57
63
63
56
50
46
42
37
31
24
18
15
15
14
10
5
3
2
0
-2
-1
6
15
21
17
5
-4
-8
-9
-13
-18
-23
-26
-33
-44
-51
-53
-55
-56
-53
-47
-38
-24
-6
10
18
22
28
43
66
86
93
85
62
32
8
-9
-27
-49
-71
-88
-96
-100
-100
-99
-97
-93
-85
-74
-61
-43
-21
3
29
49
62
72
82
93
96
91
89
94
99
96
86
76
66
57
49
46
43
35
21
3
-13
-26
-34
-39
-43
-46
-44
-40
-35
-31
-27
-26
-28
-29
-25
-22
-21
-22
-24
-27
-32
-35
-39
-43
-45
-42
-39
-38
-36
-34
-31
-28
-21
-10
0
7
13
24
39
54
68
84
96
96
86
73
61
49
35
22
11
1
-13
-34
-51
-60
-63
-70
-81
-88
-84
-73
-57
-39
-25
-16
-11
0
21
40
52
62
73
82
84
78
68
53
32
12
0
-13
-33
-53
-65
-70
-71
-71
-67
-58
-45
-30
-15
-1
10
23
37
49
60
68
71
72
68
61
51
40
29
16
-1
-17
-24
-24
-26
-34
-41
-41
-39
-37
-37
-39
-41
-38
-28
-14
-4
3
10
17
21
21
20
21
21
20
18
16
12
6
2
0
0
0
-1
-1
0
3
7
8
11
16
20
18
9
-2
-9
-13
-15
-16
-15
-12
-4
5
5
-6
-18
-21
-19
-19
-20
-17
-14
-14
-14
-9
-2
5
12
15
10
1
-4
-5
-6
-8
-11
-14
-18
-17
-13
-9
-10
-11
-7
0
5
8
8
8
11
16
20
18
20
33
47
53
54
54
51
41
28
15
3
-10
-18
-20
-19
-18
-13
-7
-5
-7
-14
-21
-27
-31
-31
-31
-35
-35
-26
-19
-18
-20
-23
-27
-29
-30
-28
-22
-14
-5
3
9
12
18
29
42
51
56
62
68
68
63
56
46
32
21
16
14
8
-2
-18
-34
-45
-49
-49
-46
-39
-28
-25
-36
-52
-57
-50
-38
-23
-1
18
30
36
43
47
47
48
48
38
17
0
-11
-21
-36
-55
-69
-74
-76
-76
-76
-71
-59
-43
-26
-9
7
23
38
53
69
80
80
75
73
79
86
87
84
76
65
50
36
22
7
-2
-5
-7
-13
-22
-31
-37
-41
-45
-51
-56
-56
-47
-40
-38
-40
-41
-35
-28
-23
-16
-2
14
28
35
34
26
17
10
3
-6
-14
-13
-9
-13
-23
-30
-28
-18
-7
0
0
-2
-4
-3
0
4
12
21
27
27
20
9
0
-7
-11
-9
-7
-8
-12
-15
-18
-21
-24
-21
-13
-2
9
20
28
33
36
37
33
28
23
20
18
20
26
27
21
16
9
-2
-12
-15
-13
-8
0
4
9
12
12
10
4
-3
-6
-2
2
3
3
6
13
19
18
11
3
-5
-14
-23
-34
-46
-57
-62
-62
-62
-60
-51
-40
-30
-18
-6
2
13
22
27
26
20
15
11
7
3
-1
-9
-17
-18
-15
-13
-16
-15
-8
-4
-4
-1
4
11
19
30
45
57
66
72
74
73
69
67
68
74
83
89
82
60
26
-17
-56
-80
-95
-106
-114
-120
-122
-121
-120
-117
-107
-94
-84
-73
-55
-33
-16
-4
9
27
42
51
59
65
67
65
66
66
61
56
59
64
68
68
63
54
41
30
21
11
4
8
12
13
12
7
0
-9
-18
-27
-33
-36
-34
-27
-22
-22
-24
-24
-25
-27
-27
-22
-16
-14
-10
0
13
20
19
9
-7
-22
-35
-49
-64
-75
-77
-74
-66
-55
-46
-42
-38
-20
15
49
65
68
70
79
87
96
106
111
105
93
78
63
46
27
10
-2
-16
-34
-56
-76
-85
-85
-86
-94
-95
-79
-54
-33
-21
-16
-14
-15
-13
-1
12
21
30
38
43
40
31
19
5
-7
-17
-22
-25
-25
-23
-20
-18
-17
-11
0
9
15
22
32
45
56
64
66
62
55
48
42
34
25
16
8
0
-7
-16
-29
-41
-45
-44
-41
-30
-16
-5
2
11
23
33
34
30
22
7
-7
-15
-20
-26
-31
-28
-20
-16
-14
-11
-6
0
4
9
8
0
-11
-24
-39
-57
-70
-73
-71
-68
-65
-59
-51
-44
-32
-11
13
36
51
66
80
86
81
74
65
56
47
41
34
23
9
0
-3
0
7
17
23
25
31
43
53
56
51
40
21
-3
-25
-37
-44
-52
-60
-63
-57
-55
-68
-88
-102
-105
-98
-83
-65
-47
-29
-4
30
58
66
63
56
54
54
52
45
34
21
9
0
-8
-14
-22
-24
-17
-5
9
23
31
34
36
38
40
40
38
41
45
45
46
47
40
25
3
-17
-32
-45
-57
-65
-65
-62
-59
-51
-38
-25
-16
-7
5
21
32
33
28
17
2
-12
-23
-28
-29
-30
-31
-31
-30
-29
-26
-22
-16
-9
-3
4
14
21
27
36
44
44
37
28
21
16
7
0
0
3
11
22
28
29
25
19
14
11
13
14
5
-9
-24
-37
-52
-72
-84
-82
-76
-68
-55
-36
-15
0
13
28
36
36
36
42
51
54
51
47
44
43
40
33
21
4
-13
-27
-37
-43
-43
-39
-35
-33
-32
-29
-20
-7
6
12
17
28
41
49
52
54
57
59
59
60
55
40
17
-5
-27
-54
-85
-103
-103
-94
-84
-73
-60
-48
-35
-21
-3
13
30
45
54
54
50
48
47
43
36
30
27
26
23
12
-3
-15
-21
-26
-31
-30
-18
-1
9
13
10
4
0
-5
-8
-11
-14
-18
-20
-17
-15
-16
-17
-18
-16
-11
-7
-7
-7
-4
0
2
5
9
12
14
15
14
9
4
3
10
17
18
16
16
20
21
18
11
5
4
7
4
-9
-23
-26
-21
-14
-11
-13
-15
-18
-20
-17
-14
-12
-5
5
14
16
15
16
20
23
21
15
6
-1
-4
-6
-12
-21
-25
-23
-18
-13
-5
16
49
70
68
52
30
6
-12
-23
-34
-45
-54
-56
-51
-44
-36
-33
-31
-26
-20
-13
1
20
33
41
46
49
47
41
32
23
15
9
7
8
7
3
-2
-4
0
5
10
13
12
9
3
-6
-18
-28
-35
-39
-42
-45
-43
-37
-27
-14
0
12
21
27
29
28
21
13
11
11
7
-3
-12
-17
-23
-26
-23
-15
-10
-9
-5
0
2
1
1
4
10
15
19
24
30
37
44
46
39
28
21
17
13
10
10
12
12
7
-4
-18
-30
-39
-50
-63
-68
-63
-55
-47
-35
-24
-16
-9
-2
5
12
14
12
10
10
16
21
22
22
22
23
23
20
14
6
2
2
8
19
32
41
49
50
34
5
-19
-34
-43
-52
-59
-59
-51
-41
-30
-19
-10
-8
-11
-13
-7
7
23
33
35
34
32
29
25
19
10
1
-2
-2
2
9
15
19
18
18
19
17
8
-4
-17
-23
-27
-31
-35
-38
-38
-35
-33
-30
-24
-15
-4
1
2
7
19
29
33
33
32
31
30
28
25
20
11
0
-5
-11
-21
-28
-28
-22
-16
-12
-7
-3
0
6
14
19
22
24
25
23
19
18
20
22
20
13
7
3
-3
-15
-35
-55
-67
-69
-65
-59
-52
-45
-36
-22
-4
11
20
23
31
41
45
44
41
39
36
30
25
19
9
0
-8
-13
-19
-23
-14
7
30
44
48
42
27
9
-14
-43
-64
-70
-68
-65
-63
-61
-57
-52
-40
-17
9
30
44
50
49
38
25
15
11
8
7
9
16
26
38
45
42
34
30
31
29
22
12
6
2
-3
-9
-13
-16
-21
-25
-27
-30
-33
-37
-38
-36
-32
-26
-18
-10
-2
5
11
13
18
24
24
17
4
-7
-12
-12
-10
-5
-3
0
7
11
8
1
-3
-3
-3
-3
-2
0
6
14
24
25
20
19
25
33
32
20
4
-11
-29
-43
-49
-49
-51
-52
-46
-38
-32
-25
-12
2
13
23
33
43
52
59
61
55
42
30
21
13
6
7
12
14
6
-11
-32
-48
-54
-55
-59
-65
-69
-64
-54
-42
-29
-12
4
19
32
42
45
47
50
53
52
46
38
31
21
7
-1
-3
-5
-7
-11
-18
-26
-31
-31
-28
-25
-21
-13
-1
10
15
14
11
16
30
40
40
32
21
11
4
0
-4
-9
-13
-13
-9
-4
-6
-16
-25
-26
-23
-24
-28
-32
-37
-39
-36
-29
-21
-11
2
16
26
32
34
35
38
42
40
31
20
12
10
9
7
4
0
-9
-19
-26
-29
-30
-31
-33
-31
-24
-7
12
25
32
37
41
39
32
23
17
12
7
4
2
0
-8
-17
-22
-25
-31
-38
-43
-44
-38
-28
-17
-5
6
19
30
35
32
28
26
25
25
23
19
11
4
-3
-17
-29
-29
-25
-25
-27
-25
-17
-9
0
8
11
11
14
19
17
10
6
4
2
-1
-5
-3
-1
-1
-2
-4
-8
-11
-13
-15
-15
-14
-10
-2
1
3
3
1
0
0
5
9
8
3
0
-1
-2
-1
1
7
10
12
15
16
10
3
0
0
0
0
2
3
3
5
9
13
14
11
4
-5
-14
-18
-20
-23
-27
-24
-13
-1
14
30
33
25
16
10
1
-8
-12
-6
5
19
28
22
7
-5
-10
-11
-10
-10
-13
-18
-22
-22
-14
3
27
41
41
31
13
-8
-19
-19
-18
-20
-23
-27
-28
-27
-25
-24
-19
-8
1
6
7
10
18
26
27
23
15
3
-5
-9
-15
-22
-24
-19
-11
-6
-3
0
3
9
18
22
20
18
18
17
14
7
3
1
0
-3
-9
-14
-16
-20
-26
-32
-37
-41
-44
-45
-39
-25
0
34
60
70
69
63
56
48
42
37
27
13
-1
-10
-13
-5
7
13
12
8
-1
-17
-29
-30
-24
-18
-16
-13
-9
-9
-12
-17
-22
-24
-25
-28
-32
-35
-32
-25
-16
-9
0
9
19
24
24
21
18
15
12
9
9
14
20
24
22
18
15
9
2
-2
-5
-8
-13
-17
-14
-6
1
7
11
11
8
4
0
-8
-17
-19
-7
9
21
25
24
20
16
9
0
-7
-10
-14
-27
-46
-54
-44
-26
-12
-6
-2
1
7
15
14
4
-7
-13
-10
-1
10
21
28
29
26
22
18
15
12
7
-1
-8
-11
-9
-5
-3
-5
-12
-19
-20
-15
-11
-10
-3
11
28
41
49
54
54
46
34
16
-4
-16
-15
-8
-6
-12
-18
-18
-12
-7
-4
-7
-16
-25
-34
-44
-55
-60
-59
-51
-39
-26
-10
7
25
39
42
37
33
34
35
28
16
6
1
0
0
1
2
-5
-19
-32
-40
-48
-54
-54
-47
-37
-27
-6
31
67
87
98
102
96
84
70
56
39
24
14
6
-5
-23
-42
-52
-54
-52
-53
-55
-50
-33
-10
9
17
10
1
1
4
5
1
-3
-4
0
3
0
-8
-19
-31
-45
-56
-55
-43
-16
17
34
27
9
-11
-33
-55
-71
-77
-70
-50
-20
10
41
71
100
118
120
112
93
72
56
49
47
43
35
21
6
-5
-22
-45
-60
-58
-52
-54
-65
-71
-65
-51
-33
-5
27
60
84
87
72
46
22
5
0
-6
-12
-17
-23
-32
-44
-54
-63
-73
-83
-87
-80
-62
-40
-20
-13
-21
-30
-32
-25
-4
27
58
83
105
124
134
129
105
67
25
0
-9
-16
-26
-38
-46
-49
-44
-30
-7
10
17
14
5
-6
-12
-8
2
8
10
11
14
12
7
1
-3
-8
-6
2
4
-5
-16
-22
-25
-29
-35
-41
-47
-50
-46
-40
-31
-20
-2
24
43
45
39
36
41
45
43
36
26
16
12
12
8
7
16
24
22
11
1
-6
-19
-36
-51
-61
-66
-60
-42
-15
14
42
59
64
59
40
17
0
1
16
25
17
0
-16
-29
-45
-62
-70
-70
-68
-66
-63
-52
-30
-2
27
55
73
77
72
65
54
30
-5
-41
-68
-79
-72
-59
-43
-13
24
41
32
19
21
39
55
57
48
28
-1
-30
-50
-57
-45
-12
22
45
57
56
42
23
4
-14
-27
-30
-19
4
28
43
54
57
47
31
14
0
-8
-12
-13
-17
-24
-29
-35
-45
-60
-74
-77
-68
-57
-46
-36
-28
-19
-8
3
15
32
58
80
86
68
32
-8
-46
-77
-91
-81
-59
-25
29
98
147
156
139
100
48
7
-10
-20
-29
-36
-38
-35
-29
-25
-30
-39
-42
-37
-27
-17
-6
6
15
18
14
11
14
23
36
49
54
51
47
32
2
-32
-62
-94
-133
-161
-157
-124
-81
-27
34
77
90
86
72
54
35
24
22
27
35
39
36
28
16
5
2
1
-6
-26
-52
-70
-70
-56
-31
1
30
42
43
40
37
36
32
22
19
31
42
38
26
16
5
-8
-20
-31
-47
-65
-74
-73
-74
-78
-67
-37
0
29
50
65
71
66
56
40
17
-7
-31
-56
-81
-95
-91
-71
-46
-12
29
60
66
55
37
19
5
-2
-4
-1
12
41
72
89
89
87
90
81
47
-8
-65
-95
-95
-83
-72
-64
-51
-24
7
23
19
13
13
12
-2
-32
-55
-59
-50
-39
-25
-9
9
30
38
29
14
8
9
14
24
35
42
45
42
31
21
21
26
29
24
5
-24
-55
-76
-90
-100
-104
-100
-75
-22
31
67
87
92
78
55
34
21
11
2
-2
-5
-8
0
26
46
41
17
-18
-54
-80
-97
-109
-107
-77
-24
32
75
109
135
144
129
100
72
54
40
25
7
-24
-69
-102
-108
-96
-72
-42
-18
-7
-1
16
40
52
52
47
31
-4
-45
-71
-86
-100
-113
-107
-72
-21
29
68
81
69
43
12
-20
-48
-68
-77
-71
-48
-23
-1
19
47
78
99
105
100
84
61
39
20
2
-14
-27
-32
-27
-14
-2
-1
-8
-13
-13
-12
-14
-17
-16
-11
-11
-24
-39
-45
-37
-20
-6
0
0
4
17
37
54
61
58
45
22
1
-9
-18
-34
-57
-76
-76
-55
-23
6
16
8
-3
-11
-7
8
25
37
50
75
102
109
88
46
1
-21
-26
-35
-47
-52
-42
-24
-12
-6
0
14
29
32
18
-5
-25
-31
-30
-33
-42
-46
-41
-31
-15
10
32
39
31
14
-7
-21
-19
-10
-4
-2
-1
1
4
0
-9
-8
2
22
41
48
35
7
-27
-64
-93
-101
-91
-77
-48
11
78
122
135
122
94
65
40
19
4
-1
1
8
13
13
11
13
13
2
-23
-52
-69
-74
-76
-76
-66
-49
-31
-17
-3
11
18
18
13
2
-14
-26
-22
-11
-2
5
11
16
19
24
30
32
29
23
8
-12
-25
-24
-15
1
23
34
33
32
32
20
-1
-14
-17
-16
-15
-13
-7
7
39
79
102
96
71
37
3
-18
-31
-41
-55
-65
-62
-47
-33
-28
-30
-30
-26
-22
-22
-26
-28
-27
-27
-30
-31
-17
9
36
49
49
46
44
39
31
25
20
12
1
-10
-21
-28
-28
-21
-8
1
2
-1
-2
1
4
2
0
0
0
6
13
15
10
4
0
-5
-10
-10
-7
-7
-8
-8
-9
-14
-21
-23
-19
-14
-9
-4
0
3
5
9
14
21
27
29
26
18
10
3
-1
-3
0
2
2
4
6
4
-1
-4
-2
2
2
-1
-5
-5
-6
-7
-7
-6
-3
0
2
7
10
12
14
12
6
0
-4
-8
-12
-21
-32
-36
-30
-13
9
26
32
33
27
8
-12
-23
-27
-22
-7
14
29
32
27
17
8
0
-7
-10
-10
-7
0
6
8
7
5
5
2
-2
-4
-5
-4
-6
-11
-19
-26
-25
-21
-13
-5
1
7
11
12
15
16
11
1
-5
-8
-9
-12
-14
-12
-5
1
6
8
6
4
3
4
6
10
16
19
16
13
9
3
-3
-9
-14
-19
-24
-26
-25
-22
-15
-1
10
17
17
16
18
20
16
10
8
6
4
6
6
1
-9
-18
-19
-17
-11
-3
0
0
-3
-5
-9
-14
-17
-17
-23
-34
-37
-27
-13
0
13
24
32
39
50
61
64
59
54
51
45
37
29
18
3
-14
-31
-41
-46
-50
-53
-55
-54
-47
-37
-26
-16
-7
-2
-1
2
11
19
22
20
16
11
5
-2
-12
-23
-33
-38
-36
-32
-25
-9
10
25
28
27
24
20
15
14
14
13
12
16
22
24
21
17
15
12
6
1
-2
-5
-8
-14
-26
-37
-36
-28
-24
-21
-17
-11
-3
4
5
5
7
12
18
24
24
18
9
2
-7
-13
-11
-8
-9
-11
-12
-12
-15
-18
-23
-26
-23
-18
-6
18
43
59
72
79
77
67
55
39
21
2
-11
-18
-20
-24
-31
-36
-36
-32
-33
-42
-51
-54
-53
-49
-43
-33
-17
-1
4
3
3
4
11
21
29
30
25
21
17
12
6
2
1
4
7
3
-4
-12
-15
-15
-15
-13
-7
5
23
37
41
42
43
45
46
43
35
23
12
4
0
-4
-10
-17
-21
-19
-19
-22
-26
-28
-27
-26
-26
-25
-18
-10
-8
-10
-10
-9
-4
2
7
6
5
7
9
8
5
0
-2
-3
-4
-6
-11
-16
-17
-13
-6
-2
0
1
5
8
10
13
13
14
19
24
26
25
23
20
15
11
8
5
0
-5
-8
-13
-22
-27
-26
-21
-19
-21
-21
-17
-16
-18
-17
-10
0
13
26
32
31
27
21
15
10
8
6
4
3
0
-9
-18
-22
-19
-14
-11
-9
-4
0
2
2
0
-4
-7
-4
1
1
-5
-12
-12
-6
3
13
21
26
27
21
10
0
-5
-6
-6
-8
-9
-7
-3
2
7
9
8
8
11
16
17
12
2
-9
-18
-22
-23
-23
-23
-22
-18
-14
-14
-16
-12
-1
8
17
24
26
21
14
13
14
14
17
22
25
23
16
10
4
-2
-10
-17
-21
-24
-26
-27
-30
-32
-32
-29
-26
-21
-14
-4
6
12
13
14
15
17
23
25
22
19
20
18
12
6
3
3
0
-5
-12
-18
-24
-27
-25
-20
-16
-9
3
15
22
26
29
32
36
36
29
19
6
-5
-13
-18
-17
-11
-6
-5
-4
-7
-16
-24
-28
-29
-31
-33
-31
-22
-12
-6
0
8
14
22
32
36
32
27
24
22
16
7
0
-4
-10
-17
-22
-26
-29
-30
-29
-26
-19
-9
4
18
27
30
31
32
33
34
33
29
18
6
-1
-3
-3
-5
-11
-17
-18
-17
-19
-23
-24
-21
-16
-14
-12
-6
2
6
4
3
3
4
9
13
12
7
2
0
-2
-6
-9
-11
-13
-13
-11
-10
-12
-17
-24
-33
-41
-40
-32
-21
-10
1
13
23
29
34
37
38
39
42
44
42
38
34
29
23
16
11
2
-8
-18
-20
-17
-13
-9
-1
8
15
20
22
21
16
14
14
11
4
-1
-4
-8
-16
-26
-34
-35
-34
-34
-36
-38
-36
-28
-17
-7
0
8
15
17
10
4
4
5
9
13
14
10
6
4
2
1
1
1
-1
-5
-10
-15
-21
-27
-33
-33
-26
-14
0
16
22
21
20
22
22
20
21
20
15
5
-3
-9
-13
-14
-11
-7
-2
2
6
6
5
3
0
-3
-7
-7
-2
0
0
0
-2
-2
0
5
7
6
7
9
9
7
3
0
-4
-6
-7
-13
-19
-20
-15
-9
-5
-3
0
5
10
9
6
5
4
7
14
18
19
17
15
12
9
9
12
13
6
-3
-13
-23
-32
-38
-38
-33
-26
-20
-14
-8
-3
1
5
10
19
28
34
32
24
15
10
15
24
24
10
-7
-19
-31
-48
-59
-57
-46
-34
-29
-29
-26
-19
-14
-8
2
16
33
48
57
56
53
51
50
44
32
20
12
3
-6
-13
-16
-16
-13
-4
3
5
2
0
0
-1
-4
-2
0
0
3
6
5
1
0
0
-3
-8
-10
-12
-13
-12
-10
-13
-22
-27
-23
-17
-12
-9
-6
-1
0
0
1
1
3
10
18
23
25
22
17
12
7
2
-2
-8
-12
-16
-20
-21
-19
-8
9
20
19
19
25
26
18
8
-2
-14
-25
-30
-30
-34
-38
-40
-42
-42
-39
-31
-17
-1
13
22
25
23
20
18
14
11
15
24
32
39
45
53
67
84
89
74
43
14
-6
-23
-41
-59
-71
-80
-86
-90
-93
-90
-78
-61
-40
-15
6
25
40
50
53
52
48
42
39
40
39
34
30
25
20
15
11
7
3
0
-3
-7
-11
-11
-5
0
2
0
1
8
10
4
-2
-11
-22
-27
-23
-16
-11
-14
-21
-26
-30
-31
-29
-25
-22
-18
-18
-23
-26
-21
-9
1
10
20
35
48
51
49
43
37
36
35
27
13
1
-5
-11
-22
-31
-32
-28
-20
-9
0
2
1
0
-2
-4
-5
-4
-1
3
11
18
18
14
10
7
5
3
0
-4
-7
-11
-14
-17
-22
-26
-25
-23
-24
-27
-26
-17
-4
6
20
37
53
59
55
42
28
19
16
17
16
15
14
11
2
-14
-30
-41
-48
-51
-49
-47
-48
-45
-41
-39
-37
-32
-26
-19
-12
-4
4
12
23
36
45
46
43
43
45
44
41
38
33
24
16
10
4
-1
-4
-2
1
0
0
1
2
1
2
2
0
0
4
9
7
0
-5
-9
-12
-18
-23
-23
-20
-17
-17
-19
-20
-17
-14
-4
14
32
42
45
40
27
10
-7
-23
-35
-44
-52
-57
-59
-61
-62
-58
-50
-40
-30
-20
-8
5
17
27
38
48
54
58
58
51
41
31
25
18
11
8
7
6
5
3
-1
-4
-2
4
13
14
11
10
9
2
-5
-9
-12
-16
-19
-14
-7
-8
-11
-10
-6
-2
2
9
12
7
2
1
3
6
5
6
7
4
-4
-17
-27
-31
-29
-21
-17
-16
-10
-2
5
13
20
24
31
50
69
76
68
50
24
-3
-27
-45
-61
-77
-85
-82
-75
-69
-62
-53
-42
-30
-14
8
28
35
35
35
27
16
9
6
5
10
22
36
48
51
44
31
16
2
-10
-22
-29
-30
-27
-20
-13
-8
-4
0
0
-3
-3
-3
-4
1
16
33
43
43
40
36
31
24
17
11
8
7
7
4
-2
-7
-7
-3
0
6
11
7
-4
-13
-15
-16
-12
-7
-8
-16
-27
-33
-36
-39
-44
-46
-47
-43
-37
-31
-29
-27
-23
-15
-6
2
13
25
38
57
80
93
93
84
70
52
33
18
4
-11
-31
-48
-58
-66
-74
-78
-78
-73
-65
-49
-27
-12
-7
-1
10
25
36
45
53
58
64
69
67
60
53
50
49
43
33
20
3
-12
-21
-25
-31
-42
-50
-52
-52
-54
-53
-47
-38
-31
-27
-21
-14
-5
5
13
15
14
14
15
19
25
31
35
39
44
49
47
36
23
10
-1
-10
-14
-13
-13
-20
-31
-39
-44
-47
-46
-44
-42
-42
-40
-35
-27
-17
-5
10
28
43
50
48
38
26
20
20
22
24
26
26
23
21
17
7
0
0
2
1
-6
-11
-11
-8
-4
2
5
2
-4
-13
-27
-40
-47
-47
-38
-28
-22
-17
-9
-6
-7
-4
0
6
13
22
27
27
26
28
35
40
41
39
33
27
24
20
12
1
-7
-15
-22
-28
-31
-33
-33
-29
-20
-11
-2
5
12
17
18
15
11
8
2
-6
-17
-27
-34
-37
-41
-47
-47
-41
-34
-28
-20
-10
0
9
16
22
27
31
37
51
73
87
89
84
73
56
38
20
3
-12
-22
-22
-21
-29
-43
-60
-74
-82
-82
-76
-68
-61
-52
-41
-29
-13
2
11
13
15
25
35
42
49
52
50
46
47
46
34
12
-6
-17
-24
-33
-44
-51
-55
-57
-53
-45
-34
-17
1
17
27
33
39
46
54
57
57
56
53
48
39
26
12
2
-3
-7
-11
-11
-7
-6
-9
-12
-10
-8
-2
5
11
10
8
7
6
2
-2
-5
-8
-15
-24
-28
-30
-34
-34
-28
-17
-7
-1
5
12
19
27
35
38
38
37
32
18
0
-17
-25
-30
-38
-51
-63
-67
-66
-66
-71
-71
-61
-43
-26
-8
14
50
91
123
136
127
103
76
51
25
0
-19
-35
-49
-65
-80
-90
-98
-106
-114
-114
-104
-88
-64
-35
-8
11
27
47
68
85
95
100
100
97
96
95
93
87
78
66
52
38
23
10
0
-2
-3
-6
-14
-21
-23
-23
-24
-22
-18
-14
-13
-13
-10
-9
-9
-9
-8
-11
-17
-26
-34
-42
-50
-54
-52
-52
-53
-53
-53
-55
-56
-49
-35
-19
-4
10
21
28
33
41
49
56
64
66
64
64
64
59
51
42
30
11
-15
-39
-51
-59
-66
-71
-68
-62
-55
-48
-40
-31
-23
-15
-2
17
43
68
80
84
80
72
62
48
29
8
-7
-19
-30
-39
-46
-55
-63
-68
-69
-64
-54
-39
-19
-3
6
19
35
48
56
59
56
49
41
36
31
27
26
22
12
3
-3
-8
-15
-24
-27
-22
-16
-10
-3
2
3
1
4
8
12
17
25
31
27
16
5
-3
-11
-21
-34
-45
-52
-57
-64
-70
-70
-63
-50
-34
-18
1
24
42
53
55
49
40
36
35
32
25
20
17
15
13
14
20
29
37
41
40
32
17
-1
-18
-32
-43
-55
-73
-90
-97
-101
-105
-106
-98
-84
-70
-54
-32
-7
15
40
69
95
105
102
97
89
75
61
52
47
40
31
24
22
22
19
15
8
3
2
3
5
5
5
4
5
9
13
15
12
3
-9
-22
-32
-38
-42
-45
-47
-43
-33
-20
-11
-8
-8
-11
-14
-14
-11
-9
-11
-15
-17
-18
-19
-18
-16
-15
-16
-13
-8
-3
2
6
10
16
30
57
84
90
80
61
38
19
9
2
-10
-33
-54
-66
-70
-66
-53
-37
-28
-29
-37
-49
-57
-58
-53
-42
-31
-23
-16
-8
4
18
32
42
47
53
64
72
74
71
67
64
60
53
44
34
24
15
4
-4
-12
-18
-23
-24
-23
-21
-17
-11
-3
7
24
41
49
47
40
27
9
-5
-14
-20
-28
-35
-36
-30
-26
-29
-38
-48
-54
-53
-51
-52
-55
-51
-37
-10
20
35
33
26
22
18
12
7
1
-8
-28
-48
-59
-61
-55
-46
-35
-26
-21
-20
-19
-12
-1
8
18
30
40
47
50
51
50
51
55
57
53
48
44
41
39
41
46
47
48
51
54
51
44
37
30
17
-1
-12
-15
-19
-28
-41
-52
-56
-54
-50
-44
-39
-37
-34
-30
-30
-31
-32
-32
-28
-20
-16
-13
-8
4
23
32
30
24
13
-2
-15
-20
-18
-12
-2
5
7
0
-9
-19
-26
-31
-34
-38
-40
-37
-25
-15
-9
-3
5
17
24
26
20
8
-1
-6
-7
-4
0
6
19
32
37
31
20
9
-1
-8
-10
-9
-1
21
49
64
66
65
63
53
36
21
12
7
4
0
-7
-16
-23
-28
-32
-36
-36
-29
-18
-11
-13
-19
-26
-32
-33
-28
-22
-14
0
17
28
29
26
18
8
5
11
15
16
18
18
13
2
-7
-11
-11
-11
-15
-18
-16
-12
-7
0
4
3
0
-1
-6
-16
-24
-24
-23
-24
-23
-16
-10
-9
-11
-11
-12
-13
-11
-4
6
17
28
37
43
44
40
30
15
-2
-21
-32
-33
-28
-20
-13
-5
0
0
-1
1
9
19
24
22
16
14
17
22
26
24
15
7
1
-3
-8
-10
-8
-5
-7
-3
11
28
38
40
37
28
18
11
0
-17
-34
-46
-54
-64
-73
-75
-71
-67
-64
-63
-64
-62
-54
-39
-14
9
28
43
60
73
80
82
78
72
68
69
69
60
45
33
24
17
14
11
0
-20
-37
-48
-58
-67
-73
-70
-62
-52
-40
-26
-14
-3
5
10
15
24
31
35
37
41
45
46
43
37
28
19
12
8
2
-5
-10
-9
-7
-7
-8
-8
-7
-5
-6
-10
-13
-10
-4
1
0
-11
-23
-32
-36
-38
-38
-35
-31
-23
-11
0
8
12
19
34
48
51
50
45
35
19
1
-18
-39
-59
-71
-74
-76
-78
-81
-80
-74
-63
-46
-22
4
28
48
69
92
108
109
99
84
69
56
41
25
10
-6
-21
-25
-21
-17
-16
-17
-14
-8
-4
-4
-2
4
14
28
45
57
55
44
26
4
-16
-29
-34
-38
-44
-49
-51
-51
-45
-31
-12
3
14
20
21
20
19
20
15
5
-3
-8
-17
-27
-31
-29
-26
-24
-26
-31
-36
-37
-33
-23
-6
9
20
26
26
26
25
25
24
19
12
4
0
-5
-11
-9
0
11
17
19
17
15
17
18
16
15
16
18
19
21
23
28
29
24
16
3
-13
-20
-14
-10
-14
-24
-38
-52
-57
-55
-51
-47
-42
-36
-32
-34
-33
-23
-6
16
43
60
62
56
49
43
38
34
25
10
-5
-17
-26
-34
-44
-48
-36
-16
-1
9
17
22
23
24
23
19
14
16
22
26
25
20
20
24
29
37
43
43
42
37
20
-1
-17
-25
-31
-38
-43
-46
-50
-57
-68
-76
-77
-68
-52
-32
-19
-12
-4
5
9
7
3
0
-1
-5
-8
-7
-6
0
17
35
43
45
42
35
27
22
22
23
25
34
50
66
77
79
72
57
34
7
-21
-46
-65
-79
-95
-116
-130
-130
-121
-106
-81
-44
-5
18
34
52
64
65
60
57
55
46
37
33
27
15
5
0
0
5
16
23
23
20
19
17
10
-2
-18
-34
-50
-58
-57
-55
-50
-36
-12
12
35
58
74
79
72
55
35
17
1
-10
-21
-35
-46
-48
-45
-42
-38
-31
-20
-13
-6
5
15
19
23
35
50
60
61
56
44
21
-3
-22
-36
-49
-60
-66
-68
-67
-60
-46
-31
-15
4
28
48
54
51
43
32
21
13
10
8
6
1
-4
-10
-16
-18
-20
-22
-24
-25
-25
-20
-11
0
8
16
25
29
29
26
19
10
2
-1
0
0
-1
-4
-5
-7
-14
-26
-37
-42
-46
-47
-46
-40
-28
-14
-3
2
3
7
18
30
35
30
23
17
17
27
41
53
63
62
49
29
12
0
-12
-26
-33
-28
-14
6
34
53
52
35
13
-10
-31
-44
-49
-54
-61
-62
-53
-39
-28
-22
-17
-13
-11
-7
0
11
22
35
49
58
57
54
56
53
44
33
25
15
0
-18
-32
-40
-43
-41
-34
-31
-33
-34
-35
-36
-36
-31
-21
-12
-4
1
3
2
3
9
20
29
35
42
46
41
30
17
6
-3
-6
-6
-11
-23
-38
-45
-45
-40
-33
-22
-7
8
21
27
24
18
13
9
2
-6
-12
-12
-7
-3
1
5
9
15
29
45
53
47
33
16
-2
-16
-20
-20
-21
-22
-24
-26
-24
-13
5
17
19
16
11
5
2
1
2
5
9
13
14
11
10
13
18
22
22
19
11
5
3
0
-8
-15
-13
-9
-16
-36
-58
-73
-76
-71
-59
-44
-32
-23
-13
-5
-4
-7
-7
0
18
34
36
24
7
-4
-11
-19
-25
-27
-22
-9
7
22
35
55
85
104
105
93
75
53
31
7
-15
-36
-55
-64
-60
-47
-30
-6
12
21
23
22
21
21
20
17
10
0
-7
-12
-8
4
20
28
29
22
7
-11
-25
-29
-24
-17
-16
-24
-33
-39
-45
-53
-54
-46
-36
-27
-21
-17
-15
-12
-8
-3
0
1
6
13
23
29
31
33
38
43
41
32
23
18
14
9
2
-7
-15
-12
-5
-4
-9
-16
-27
-36
-38
-33
-24
-10
4
17
25
31
36
34
28
23
22
24
25
26
26
20
6
-5
-11
-11
-10
-7
-4
2
11
17
22
31
37
34
13
-22
-54
-76
-87
-90
-84
-73
-63
-57
-51
-41
-30
-19
-3
20
48
64
66
60
51
44
39
36
36
38
42
45
39
29
21
15
6
-7
-18
-28
-40
-48
-50
-49
-49
-50
-47
-40
-34
-25
-11
0
11
23
31
35
35
35
34
32
29
27
26
24
22
20
16
9
0
-9
-18
-29
-35
-34
-31
-29
-26
-18
-10
-5
0
4
10
13
17
23
25
24
22
21
17
10
3
-2
-9
-12
-12
-12
-16
-18
-11
3
20
31
30
18
2
-8
-21
-39
-52
-49
-36
-30
-33
-37
-36
-30
-22
-9
8
24
33
38
36
27
19
18
20
24
27
25
24
22
15
7
0
-3
-2
0
-3
-10
-15
-14
-7
3
15
24
28
28
22
10
-5
-17
-27
-36
-41
-37
-27
-17
-15
-17
-16
-13
-11
-6
4
16
22
22
23
29
37
43
39
24
10
0
-12
-31
-53
-63
-59
-50
-42
-32
-22
-10
2
21
44
59
62
62
63
63
55
41
24
8
-8
-22
-34
-48
-64
-76
-78
-73
-65
-52
-37
-26
-16
-5
4
16
31
43
48
51
59
63
55
39
26
22
20
16
8
-1
-11
-14
-8
-5
-11
-17
-17
-11
-2
6
13
14
13
15
13
7
5
7
4
-7
-24
-37
-40
-38
-34
-33
-34
-35
-34
-34
-36
-36
-32
-24
-13
0
15
30
42
51
59
61
59
57
55
48
37
26
19
6
-17
-41
-56
-62
-68
-76
-76
-66
-50
-33
-15
0
17
35
51
58
57
54
53
51
47
43
39
33
25
18
9
0
-11
-17
-20
-21
-20
-22
-34
-53
-63
-56
-45
-33
-16
-1
3
1
-1
-7
-13
-13
-9
-6
-3
1
10
25
47
70
80
75
58
33
13
1
-9
-23
-38
-53
-63
-65
-63
-58
-49
-33
-12
6
23
43
62
74
77
73
67
56
39
20
2
-12
-22
-29
-36
-49
-63
-69
-61
-45
-26
-9
-2
-2
-3
-2
-1
0
4
11
16
18
17
19
23
22
15
12
10
3
-5
-13
-22
-27
-26
-25
-26
-29
-31
-29
-21
-8
0
1
3
11
28
44
46
36
26
23
25
25
25
26
36
46
46
36
25
14
0
-18
-35
-44
-44
-36
-20
-4
1
-3
-20
-39
-53
-62
-73
-74
-53
-25
-6
8
22
37
54
67
70
68
62
49
27
-5
-41
-74
-93
-96
-88
-71
-46
-13
43
124
178
187
169
125
57
4
-2
22
38
23
-11
-50
-83
-106
-121
-127
-130
-133
-146
-171
-177
-137
-55
46
143
199
195
148
82
20
-22
-48
-65
-74
-84
-90
-73
-25
53
139
182
171
139
99
51
17
10
19
34
47
46
30
7
-19
-49
-67
-73
-80
-94
-105
-99
-78
-54
-27
2
22
25
18
8
-3
-13
-16
-17
-18
-20
-20
-17
-11
4
32
50
45
29
10
1
9
25
47
76
102
105
87
60
17
-38
-77
-92
-94
-95
-100
-105
-100
-88
-75
-61
-43
-21
7
50
101
135
141
125
87
41
14
11
13
7
-7
-23
-26
-13
14
48
71
71
48
6
-39
-68
-86
-100
-114
-129
-130
-104
-58
-1
55
86
87
73
52
31
27
33
38
58
103
135
128
89
28
-47
-122
-181
-219
-227
-200
-143
-69
26
140
218
229
