emg_value
13
18
24
31
36
34
29
27
29
28
20
9
0
-3
-7
-14
-25
-34
-36
-30
-25
-26
-24
-15
-3
9
19
22
24
26
30
31
25
16
11
9
6
0
-4
-7
-11
-15
-18
-21
-24
-24
-23
-21
-21
-20
-15
-6
2
9
14
19
27
34
38
37
33
27
23
18
11
3
-2
-10
-14
-17
-27
-39
-43
-39
-34
-30
-26
-18
-11
-4
1
9
17
25
33
39
38
33
27
21
16
11
6
0
-6
-14
-18
-20
-28
-35
-34
-30
-27
-24
-21
-20
-16
-6
1
6
10
15
20
22
21
23
29
31
27
18
10
1
-9
-17
-22
-28
-35
-35
-30
-23
-16
-7
0
5
8
13
17
20
24
28
30
27
22
18
14
8
0
-7
-12
-15
-16
-21
-29
-33
-30
-26
-25
-25
-19
-11
-2
7
17
23
28
32
34
34
33
32
29
21
11
3
-2
-7
-8
-9
-12
-19
-29
-39
-42
-39
-33
-24
-15
-8
0
7
13
16
19
22
25
24
21
18
16
12
7
1
-4
-7
-7
-9
-17
-24
-23
-19
-17
-18
-17
-11
-5
-1
4
10
14
19
26
31
32
31
30
25
14
3
-3
-8
-13
-19
-26
-32
-38
-40
-36
-31
-29
-26
-20
-7
9
28
44
52
51
48
46
38
27
21
19
15
6
-7
-21
-30
-32
-33
-37
-42
-41
-34
-25
-19
-13
-8
-4
0
8
19
25
29
35
39
37
32
28
26
21
12
3
-3
-7
-9
-13
-21
-28
-30
-29
-27
-25
-21
-14
-5
4
10
11
12
15
22
27
29
29
29
27
21
14
8
-1
-16
-28
-34
-39
-47
-53
-52
-47
-41
-35
-23
-9
0
6
15
25
30
34
37
38
38
35
30
24
18
11
3
-5
-10
-15
-24
-33
-36
-34
-29
-22
-14
-9
-5
2
13
21
24
25
31
38
36
29
22
17
11
5
1
0
-5
-12
-17
-20
-25
-29
-30
-27
-20
-14
-11
-6
0
7
15
22
24
25
26
26
22
15
8
3
0
-6
-12
-18
-20
-20
-22
-27
-30
-26
-18
-10
-9
-10
-8
-4
1
12
22
27
31
37
40
35
26
18
11
2
-6
-12
-16
-18
-20
-23
-29
-35
-30
-16
-4
-1
-1
-3
-7
-8
-5
-1
0
0
4
12
16
16
19
22
21
18
13
7
2
2
3
-1
-10
-14
-13
-11
-9
-7
-5
-5
-2
2
8
11
13
17
21
18
11
5
1
-3
-7
-9
-10
-10
-9
-8
-10
-12
-12
-11
-12
-13
-12
-8
-2
6
16
23
26
28
30
31
27
19
13
8
1
-4
-6
-8
-13
-18
-24
-28
-30
-32
-33
-32
-29
-25
-20
-12
-5
1
8
13
15
18
21
24
26
29
29
26
21
14
7
3
4
4
-1
-13
-24
-28
-29
-29
-28
-22
-15
-9
0
9
15
18
22
28
32
30
27
24
22
19
14
4
-8
-20
-28
-38
-50
-58
-59
-55
-50
-44
-36
-27
-16
-2
12
24
32
39
46
50
49
42
35
30
26
21
15
7
4
5
4
-3
-14
-21
-19
-13
-8
-4
0
0
2
7
14
16
16
21
25
20
13
7
2
-3
-10
-17
-22
-26
-28
-32
-38
-44
-45
-41
-33
-24
-16
-9
-2
5
14
24
30
32
32
31
25
17
13
10
6
3
2
-1
-3
-2
-1
-3
-8
-11
-12
-13
-12
-11
-9
-8
-4
3
9
12
15
16
14
9
3
0
0
0
-1
-3
-5
-7
-7
-8
-11
-10
-6
-1
1
-4
-14
-15
-4
8
18
24
25
23
24
23
16
7
4
5
0
-15
-31
-39
-38
-35
-36
-38
-38
-32
-22
-14
-8
1
21
53
87
114
120
84
27
-3
-2
7
22
55
103
114
43
-68
-137
-142
-120
-99
-77
-38
2
16
3
-20
-51
-84
-97
-83
-55
-26
-7
9
33
52
51
36
25
22
23
26
27
24
17
10
4
-1
-6
-9
-7
-2
3
8
14
18
18
18
22
25
27
33
40
40
34
27
21
15
11
7
1
-5
-8
-6
-8
-16
-27
-31
-30
-31
-33
-29
-23
-17
-12
-6
0
6
16
27
32
29
26
24
20
13
5
-1
-9
-15
-21
-30
-36
-36
-30
-25
-25
-24
-20
-14
-6
3
13
18
19
23
30
31
27
22
19
19
21
18
12
3
-4
-9
-13
-19
-27
-36
-40
-38
-35
-30
-25
-19
-13
-3
7
15
22
28
31
29
24
21
21
18
12
2
-7
-12
-14
-17
-26
-34
-33
-26
-18
-11
-6
-3
-2
0
7
11
12
15
24
30
28
22
16
12
7
6
8
12
13
8
0
-8
-12
-10
-7
-10
-17
-20
-20
-21
-21
-14
-5
1
7
15
18
16
11
7
4
3
5
5
1
-4
-6
-5
-9
-16
-18
-11
-2
0
0
-3
-6
-7
-4
4
13
20
26
29
23
15
11
9
2
-8
-17
-22
-24
-27
-30
-30
-26
-19
-10
-2
3
7
12
17
24
31
37
37
35
36
36
32
26
22
18
12
4
-1
-8
-16
-21
-22
-25
-30
-33
-30
-23
-18
-17
-17
-17
-14
-9
-3
1
9
19
27
29
27
21
15
9
1
-5
-10
-15
-17
-22
-29
-36
-36
-34
-31
-27
-21
-12
1
16
29
34
30
26
29
36
40
37
30
21
9
-3
-12
-18
-23
-25
-26
-28
-35
-43
-47
-43
-36
-27
-19
-12
-8
-5
0
5
12
21
28
30
30
31
34
35
35
33
29
24
21
21
19
12
3
-2
-5
-9
-13
-13
-8
0
9
16
13
6
-1
-6
-9
-10
-10
-10
-12
-15
-18
-19
-23
-29
-34
-37
-38
-37
-32
-22
-12
-6
0
9
21
35
50
56
55
55
60
62
57
45
31
18
7
-1
-8
-14
-22
-30
-38
-49
-62
-70
-71
-68
-62
-54
-45
-37
-23
-8
0
4
15
36
63
80
80
69
53
35
21
10
1
-8
-21
-37
-53
-64
-68
-68
-67
-61
-50
-35
-20
-7
6
19
32
50
65
70
68
65
61
55
48
43
37
27
16
10
8
6
2
1
3
10
18
28
58
146
276
382
442
456
439
408
280
-2
-320
-544
-635
-614
-545
-489
-451
-393
-295
-181
-61
70
143
85
-34
-86
-46
18
53
31
-50
-154
-216
-196
-116
-67
-127
-245
-284
-208
-101
-24
48
159
258
247
170
129
149
204
261
307
344
354
304
191
79
36
55
99
169
246
272
223
124
25
-25
-28
-25
-40
-57
-53
-37
-34
-58
-90
-104
-97
-86
-76
-66
-54
-43
-35
-26
-20
-19
-18
-8
4
8
1
-8
-18
-29
-36
-37
-37
-37
-36
-35
-37
-40
-41
-40
-38
-34
-28
-17
-2
11
21
27
33
43
53
53
45
31
18
8
0
-6
-11
-19
-30
-39
-43
-49
-59
-63
-58
-50
-45
-38
-31
-25
-20
-14
-7
-1
6
18
27
29
27
25
24
22
18
12
6
0
-5
-6
-9
-15
-20
-23
-24
-24
-23
-20
-15
-11
-5
1
5
11
26
44
53
54
52
53
50
42
33
21
7
-5
-15
-23
-33
-44
-49
-46
-40
-36
-31
-22
-12
1
20
36
44
50
55
55
49
40
32
26
18
8
0
-4
-11
-20
-30
-39
-42
-38
-33
-32
-31
-27
-18
-10
-3
3
8
14
23
33
37
35
31
26
18
9
4
1
-1
-6
-10
-15
-23
-32
-37
-35
-29
-21
-13
-2
7
14
20
23
21
20
24
28
28
26
23
20
14
5
-1
-5
-9
-10
-16
-32
-46
-45
-38
-35
-35
-28
-12
4
16
25
28
23
15
12
12
10
5
0
-1
-1
-2
-2
-4
-10
-18
-26
-32
-39
-42
-40
-33
-24
-11
4
19
29
33
33
32
33
36
38
35
32
28
24
19
16
15
12
6
2
-1
-7
-16
-20
-17
-16
-20
-24
-23
-19
-15
-10
-5
-5
-8
-7
0
5
8
12
19
29
39
42
33
41
140
298
369
329
240
137
54
1
-40
-82
-124
-146
-146
-148
-161
-180
-197
-210
-212
-206
-201
-206
-216
-225
-246
-283
-290
-250
-191
-137
-89
-47
-9
24
52
83
110
133
155
175
191
198
204
219
240
245
218
181
162
150
118
54
-27
-94
-118
-107
-86
-69
-54
-35
-19
-8
2
18
31
41
52
62
72
82
89
94
97
103
114
121
119
108
94
79
63
49
37
22
0
-19
-30
-34
-34
-33
-31
-29
-31
-37
-41
-45
-47
-47
-49
-57
-68
-77
-84
-92
-104
-110
-109
-105
-103
-102
-99
-92
-81
-66
-49
-36
-24
-11
2
17
32
40
42
42
45
51
53
51
49
50
51
49
45
39
32
26
21
12
-5
-27
-38
-40
-40
-44
-52
-58
-56
-47
-40
-38
-34
-23
-13
-6
0
4
8
13
18
23
24
24
21
19
19
20
19
18
17
16
17
19
23
29
38
42
39
36
42
53
59
54
43
32
19
8
-2
-11
-21
-32
-38
-40
-47
-52
-49
-41
-34
-29
-23
-15
-7
0
12
19
22
24
25
24
16
2
-12
-21
-28
-34
-39
-39
-32
-24
-20
-20
-20
-16
-9
0
10
19
28
38
50
64
64
51
37
26
15
4
-4
-11
-17
-25
-32
-33
-30
-34
-39
-42
-42
-42
-37
-28
-16
-6
2
13
28
44
58
65
66
67
66
64
57
48
40
33
27
22
9
-13
-31
-38
-42
-49
-60
-64
-59
-52
-48
-45
-41
-36
-28
-18
-11
-7
0
11
18
18
15
16
24
36
40
33
22
13
5
-1
-10
-17
-22
-26
-30
-32
-31
-25
-19
-11
-1
5
4
4
14
28
36
39
43
46
43
35
28
19
10
3
-1
-7
-17
-23
-22
-15
-11
-10
-9
-6
-5
-1
0
0
1
5
9
8
2
-5
-10
-14
-18
-20
-21
-22
-24
-31
-38
-40
-35
-29
-25
-22
-16
-8
0
12
31
43
43
40
46
56
54
46
40
34
22
10
1
-5
-14
-23
-27
-28
-31
-30
-22
-13
-10
-9
-3
11
26
36
39
35
35
39
41
36
28
14
-2
-15
-27
-39
-50
-56
-56
-52
-51
-54
-54
-47
-39
-30
-16
-3
8
16
80
11
27
41
48
49
49
47
40
31
24
18
13
9
9
10
6
0
-2
0
0
-4
-6
-3
1
2
0
0
1
3
5
5
6
6
5
3
4
4
2
-2
-9
-12
-15
-20
-27
-32
-33
-33
-36
-38
-38
-36
-33
-29
-21
-15
-11
-4
2
7
10
13
13
12
11
12
14
15
18
21
20
16
11
11
12
11
11
14
16
18
23
27
26
23
26
30
30
22
13
5
0
-6
-15
-23
-28
-30
-24
-14
-9
-9
-7
-1
2
4
8
13
15
9
-1
-11
-16
-18
-23
-31
-39
-43
-44
-48
-52
-51
-47
-44
-39
-29
-18
-8
4
20
37
46
44
41
42
48
56
57
60
70
84
91
89
78
62
43
25
9
-8
-27
-43
-54
-62
-72
-85
-94
-93
-87
-79
-73
-64
-49
-34
-21
-9
3
15
30
48
64
71
68
62
56
49
42
36
29
19
8
-1
-11
-20
-22
-18
-12
-9
-5
-5
-8
-7
-1
4
10
15
17
13
3
-10
-22
-31
-35
-38
-40
-44
-46
-43
-39
-37
-34
-22
0
25
46
60
66
64
58
50
42
35
34
38
37
26
9
-7
-25
-44
-63
-76
-82
-85
-83
-77
-72
-66
-54
-36
-22
-15
-7
2
14
31
52
72
87
96
101
98
87
74
60
47
32
18
6
-6
-20
-30
-38
-46
-55
-63
-62
-52
-44
-33
-15
1
12
24
42
61
69
69
65
59
49
37
25
13
0
-14
-29
-38
-41
-47
-62
-78
-82
-75
-61
-50
-44
-37
-32
-23
-7
5
10
13
18
26
31
30
28
22
13
2
-7
-15
-22
-28
-32
-31
-30
-28
-20
-6
6
16
29
49
66
73
69
61
53
52
54
50
41
30
20
11
2
-5
-12
-20
-22
-20
-24
-36
-42
-36
-25
-19
-18
-16
-13
-14
-17
-23
-30
-33
-29
-24
-22
-22
-20
-16
-12
-5
4
13
19
31
52
70
76
69
56
46
37
30
27
25
16
3
-12
-30
-49
-59
-61
-62
-67
-68
-64
-59
-59
-58
-49
-36
-22
-7
5
14
26
40
53
59
53
42
31
23
20
21
23
26
28
30
27
22
20
19
20
17
11
4
-1
-7
-14
-23
-31
-36
-37
-36
-36
-36
-32
-26
-20
-11
3
26
46
60
70
74
69
56
37
13
-10
-29
-44
-57
-68
-72
-71
-73
-77
-76
-68
-57
-47
-29
6
44
71
85
86
81
75
75
78
71
54
31
6
-16
-35
-52
-63
-67
-67
-68
-75
-78
-68
-51
-35
-23
-8
6
18
33
53
63
63
61
62
61
55
46
36
25
13
3
0
-5
-12
-19
-19
-16
-15
-13
-8
-3
-2
0
10
22
29
30
26
14
-3
-16
-20
-23
-28
-35
-40
-42
-45
-49
-55
-56
-48
-36
-27
-19
-12
-5
2
12
29
43
44
40
38
39
37
36
34
27
18
10
4
1
-1
-8
-13
-12
-9
-7
-7
-10
-11
-9
-2
6
14
18
21
22
19
14
9
4
3
7
10
9
5
1
-2
-6
-10
-13
-18
-27
-34
-34
-31
-32
-39
-41
-35
-28
-22
-11
0
12
29
52
76
93
99
94
75
47
24
13
4
-5
-12
-16
-22
-29
-37
-50
-66
-80
-88
-90
-92
-93
-87
-77
-63
-46
-32
-25
-21
-13
0
10
18
26
36
46
49
49
49
51
56
64
68
66
61
59
58
54
47
42
38
35
33
32
39
57
70
68
53
30
1
-23
-39
-51
-59
-67
-78
-87
-91
-96
-102
-101
-88
-66
-43
-25
-12
-2
3
7
14
23
32
40
50
59
62
61
58
46
24
3
-8
-13
-17
-25
-33
-39
-41
-40
-41
-45
-49
-50
-46
-38
-27
-12
5
24
45
64
73
71
60
50
47
46
40
28
9
-8
-17
-20
-21
-23
-30
-34
-32
-30
-24
-14
-3
5
7
-1
-12
-18
-16
-13
-13
-12
-10
-10
-11
-13
-12
-8
-3
4
15
24
23
21
32
55
77
88
86
73
59
52
47
37
19
-2
-22
-35
-46
-59
-77
-93
-102
-107
-112
-116
-108
-94
-80
-63
-38
-10
13
27
33
42
53
64
78
95
112
122
125
124
115
97
76
57
40
26
17
10
0
-14
-33
-60
-88
-109
-121
-130
-139
-137
-121
-105
-89
-72
-56
-46
-35
-15
15
45
65
77
90
108
125
132
123
100
75
56
43
33
21
6
-4
-13
-23
-32
-32
-26
-28
-40
-57
-73
-80
-79
-77
-77
-79
-76
-71
-67
-65
-60
-49
-34
-16
1
20
41
66
89
110
129
138
135
124
112
100
86
74
64
51
32
13
7
12
16
11
-3
-21
-39
-56
-71
-78
-80
-85
-96
-106
-109
-103
-94
-85
-77
-65
-49
-30
-9
12
31
46
55
63
69
72
71
66
62
61
64
66
62
51
40
40
44
36
11
-15
-31
-40
-43
-40
-34
-30
-26
-21
-21
-26
-34
-37
-36
-36
-41
-48
-57
-65
-70
-70
-66
-59
-38
2
41
58
54
41
27
19
13
4
-10
-22
-26
-26
-28
-31
-29
-23
-13
0
13
25
32
41
54
72
90
102
108
107
104
102
106
122
154
173
149
98
48
8
-35
-87
-127
-146
-157
-170
-188
-197
-196
-190
-176
-152
-122
-93
-63
-32
-5
16
34
49
61
68
72
75
83
98
115
130
144
150
142
119
90
65
42
17
0
-7
-15
-40
-78
-107
-117
-121
-127
-132
-125
-111
-96
-75
-49
-24
-2
20
44
66
80
85
84
82
84
86
86
81
67
45
24
12
9
13
21
28
28
21
12
3
-9
-33
-65
-99
-129
-147
-155
-158
-153
-142
-128
-111
-91
-68
-41
-13
10
29
57
102
140
148
139
130
124
118
110
99
85
71
56
40
21
2
-13
-22
-23
-18
-12
-12
-19
-30
-44
-59
-73
-80
-78
-70
-60
-50
-43
-34
-18
0
15
24
29
42
69
88
91
89
93
97
94
81
62
38
6
-25
-52
-76
-101
-119
-125
-125
-124
-115
-101
-87
-74
-59
-36
-10
8
25
41
50
54
57
62
67
74
84
89
89
83
69
42
9
-15
-29
-38
-44
-44
-39
-27
-4
30
56
61
52
34
7
-23
-52
-76
-99
-123
-136
-131
-117
-100
-78
-53
-27
-3
27
67
99
113
120
120
109
90
72
59
44
25
9
-1
-9
-12
-7
2
12
14
6
-7
-20
-27
-31
-39
-53
-59
-50
-35
-23
-12
-2
4
8
13
20
28
36
49
63
70
65
55
46
35
21
10
0
-10
-21
-33
-46
-58
-69
-80
-92
-98
-94
-84
-67
-40
-10
16
33
42
44
43
36
25
15
10
10
13
17
16
7
-3
-8
-8
-8
-8
-3
8
21
26
21
9
-2
-10
-17
-27
-37
-39
-33
-30
-31
-30
-22
-10
2
16
30
48
70
92
113
132
141
127
86
37
3
-16
-39
-77
-124
-160
-172
-172
-157
-125
-88
-56
-27
4
40
66
76
81
89
104
121
133
130
105
63
25
1
-16
-26
-20
-5
7
13
5
-16
-36
-46
-51
-55
-59
-60
-56
-51
-46
-37
-29
-20
-10
-2
7
22
40
51
42
15
-10
-30
-48
-70
-92
-98
-84
-48
18
100
143
137
123
118
112
94
65
35
3
-32
-64
-86
-101
-106
-97
-79
-54
-18
16
34
46
68
86
81
58
32
7
-22
-58
-85
-96
-89
-68
-48
-43
-44
-41
-43
-55
-60
-49
-26
-3
13
26
38
49
61
74
82
87
95
101
102
99
98
102
116
126
106
63
17
-32
-79
-105
-113
-108
-98
-89
-84
-81
-77
-71
-65
-58
-49
-36
-23
-11
0
10
21
41
78
107
105
86
64
35
-6
-43
-51
-31
-20
-40
-76
-112
-137
-144
-133
-109
-78
-39
10
47
66
79
96
117
134
137
131
122
104
82
65
49
29
12
4
-1
-11
-21
-28
-34
-38
-33
-13
5
10
0
-22
-49
-61
-59
-58
-58
-57
-64
-79
-89
-77
-40
0
29
45
49
43
34
26
21
25
43
59
59
40
8
-25
-37
-14
37
91
111
95
59
19
-20
-59
-95
-124
-140
-141
-131
-118
-105
-88
-49
13
59
61
41
26
18
14
11
11
30
72
108
127
151
173
165
117
55
9
-3
4
5
-7
-30
-58
-81
-88
-85
-84
-97
-120
-132
-127
-113
-94
-74
-56
-37
-4
58
122
135
97
45
-4
-42
-41
0
47
63
43
22
20
27
37
50
68
85
90
69
21
-17
-26
-19
-10
-8
-14
-29
-49
-71
-89
-99
-99
-86
-61
-31
1
36
79
133
173
177
145
85
18
-21
-30
-29
-37
-62
-81
-71
-41
-25
-37
-44
-19
24
56
55
16
-41
-92
-128
-152
-154
-132
-92
-47
-13
10
33
64
90
94
79
58
41
38
48
73
112
145
152
138
130
147
170
155
95
23
-40
-102
-180
-275
-347
-374
-372
-346
-293
-221
-143
-67
10
97
172
217
235
235
224
211
198
185
173
159
136
106
74
54
65
101
131
100
-4
-113
-179
-215
-251
-290
-309
-292
-254
-197
-115
-27
37
73
97
132
159
150
110
56
4
-24
-34
-42
-51
-52
-42
-25
-1
33
76
101
105
107
121
132
117
81
44
10
-23
-36
-10
43
84
78
35
-5
-27
-44
-83
-147
-215
-268
-296
-290
-244
-167
-78
11
96
153
172
170
171
169
146
106
68
44
28
10
-10
-28
-13
51
111
133
139
118
46
-37
-89
-115
-152
-213
-248
-226
-179
-134
-89
-36
12
46
71
88
94
90
89
97
99
81
49
18
2
18
62
110
154
201
224
191
106
-12
-143
-244
-306
-340
-328
-257
-159
-75
-21
10
29
33
26
20
30
61
91
104
112
128
143
136
109
85
114
201
246
197
101
2
-88
-163
-220
-269
-326
-393
-418
-363
-247
-94
70
184
221
210
173
125
79
46
21
0
-11
-8
7
36
91
153
171
140
96
51
23
55
142
222
234
156
24
-101
-194
-275
-360
-413
-420
-402
-352
-248
-110
11
94
143
176
199
204
180
146
128
133
144
143
122
95
72
57
70
108
122
91
35
-30
-93
-135
-157
-171
-194
-227
-241
-215
-152
-62
20
55
61
74
91
90
73
55
39
16
-2
2
20
23
20
36
51
43
23
1
-26
-52
-54
-25
20
52
60
56
52
63
81
72
32
-9
-42
-68
-91
-109
-122
-129
-128
-102
-42
31
71
54
12
-22
-38
-41
-38
-24
2
26
43
67
102
138
161
152
105
43
-4
-29
-24
3
26
27
13
-19
-75
-122
-148
-170
-190
-189
-160
-102
-17
81
160
184
165
135
98
51
9
-19
-35
-23
16
54
76
88
87
75
55
24
-21
-77
-130
-163
-171
-163
-135
-85
-36
-9
2
29
86
143
167
153
120
100
99
82
26
-46
-108
-140
-134
-96
-41
6
30
32
27
21
4
-17
-41
-70
-90
-92
-79
-56
-14
43
86
84
54
29
14
8
10
5
-17
-41
-45
-40
-48
-58
-43
-10
3
-1
3
63
183
282
309
274
179
31
-104
-187
-230
-260
-284
-288
-254
-163
-26
88
146
163
145
103
62
42
37
31
16
-5
-15
-2
26
50
53
35
2
-38
-79
-97
-64
0
67
120
134
93
17
-56
-118
-171
-208
-216
-176
-84
25
115
173
191
172
134
98
68
43
29
37
59
67
46
2
-38
-66
-86
-99
-95
-68
-36
-19
-17
-9
11
26
23
11
-16
-68
-119
-146
-149
-141
-132
-104
-34
65
141
159
135
101
68
35
11
-6
-31
-61
-80
-75
-51
-22
6
35
58
78
102
153
246
324
324
255
149
34
-56
-121
-182
-255
-329
-361
-330
-257
-151
-31
51
78
76
63
40
19
25
62
95
103
106
106
81
18
-52
-88
-84
-73
-42
29
102
130
124
109
77
17
-45
-72
-74
-92
-119
-124
-109
-98
-100
-100
-86
-66
-42
-8
34
78
115
149
171
159
113
52
-6
-44
-54
-47
-24
11
37
50
53
40
17
-4
-21
-28
-28
-25
-21
-15
-4
14
43
68
82
82
69
48
22
-4
-30
-53
-73
-87
-94
-91
-68
-42
-39
-60
-83
-102
-120
-126
-110
-75
-23
48
110
138
137
124
108
84
54
24
7
3
-14
-51
-82
-63
13
84
102
86
53
5
-33
-40
-30
-22
-27
-32
-14
23
53
62
55
39
29
30
23
-2
-40
-81
-107
-99
-63
-28
-9
6
28
40
30
2
-32
-58
-66
-57
-33
23
107
169
193
195
157
66
-34
-104
-147
-196
-252
-269
-229
-149
-52
32
92
128
147
164
165
141
100
53
10
-14
-18
-4
17
37
40
24
1
-27
-60
-84
-92
-94
-96
-84
-45
10
53
61
40
18
15
30
57
85
95
92
90
88
72
36
-12
-64
-128
-209
-264
-263
-226
-191
-168
-138
-82
-16
39
78
100
112
124
149
192
229
239
216
162
85
21
-14
-33
-49
-66
-85
-95
-82
-5
126
219
230
201
163
95
-14
-136
-242
-328
-392
-408
-364
-279
-166
-49
27
66
106
161
210
221
197
167
132
85
41
15
5
11
32
53
62
62
43
0
-46
-71
-74
-67
-63
-65
-65
-58
-39
-7
25
47
60
65
60
62
69
56
4
-76
-147
-181
-187
-141
-15
119
174
132
32
-59
-117
-150
-176
-205
-220
-196
-130
-26
90
163
179
172
165
166
166
159
149
134
112
89
65
41
11
-24
-58
-81
-94
-100
-100
-88
-67
-42
-12
19
39
42
42
40
24
-1
-24
-41
-56
-66
-58
-21
49
128
169
146
82
7
-75
-161
-217
-238
-244
-238
-202
-135
-52
31
109
164
173
154
142
137
127
114
106
98
72
23
-24
-60
-91
-117
-119
-81
-21
28
54
55
34
6
-16
-41
-67
-79
-75
-58
-28
1
23
39
55
66
66
57
48
40
32
26
30
40
42
26
0
-25
-48
-73
-96
-106
-101
-87
-60
-16
25
51
62
61
56
53
48
38
24
10
4
2
-3
-16
-32
-44
-47
-39
-25
-10
-2
0
2
1
-2
-3
-1
3
11
25
33
29
16
3
-6
-14
-19
-18
-15
-12
-7
0
8
29
67
85
62
18
-32
-83
-122
-142
-145
-133
-106
-60
2
67
116
132
115
87
65
48
28
11
5
11
17
15
8
3
2
0
-5
-10
-9
-7
-4
0
2
5
9
16
19
16
14
15
15
11
10
9
5
-6
-24
-43
-61
-81
-99
-104
-88
-61
-31
-3
19
29
32
35
44
58
69
69
60
46
30
17
5
-4
-10
-10
-10
-11
-13
-20
-31
-34
-30
-28
-32
-37
-33
-22
-11
-2
5
11
19
29
35
36
37
37
31
20
11
8
11
13
13
10
1
-12
-30
-43
-46
-43
-32
-14
3
12
11
6
-4
-17
-26
-25
-20
-16
-11
1
16
27
36
45
51
42
22
2
-14
-24
-19
-4
4
3
-2
-10
-17
-19
-18
-20
-25
-27
-22
-8
6
15
21
28
30
26
19
13
9
1
-10
-20
-28
-30
-27
-23
-20
-14
-8
-5
-2
1
6
14
30
45
48
46
43
41
33
23
12
3
-2
-7
-12
-17
-23
-28
-30
-30
-28
-27
-25
-22
-16
-8
3
11
14
14
15
14
15
20
21
17
12
5
-7
-21
-31
-36
-40
-42
-41
-34
-22
-11
-4
2
14
25
30
30
29
28
28
31
35
32
27
25
22
13
3
-5
-13
-22
-33
-41
-42
-39
-34
-26
-15
0
15
29
38
36
27
19
13
9
10
13
11
3
-9
-14
-8
0
3
-3
-11
-14
-15
-19
-26
-30
-27
-23
-21
-18
-15
-13
-7
1
9
14
19
26
34
41
46
47
43
31
13
-2
-14
-24
-33
-39
-41
-42
-42
-38
-26
-13
-3
4
8
9
10
12
13
15
20
25
27
27
24
22
19
15
11
7
0
-3
-6
-8
-10
-17
-23
-23
-23
-21
-16
-12
-8
-3
1
7
12
17
22
21
15
9
4
0
-4
-6
-9
-13
-15
-14
-13
-16
-18
-16
-10
-1
4
8
9
10
10
10
9
5
5
9
12
12
13
14
12
5
-3
-11
-17
-17
-15
-13
-13
-17
-21
-18
-15
-9
0
10
17
19
21
22
26
32
37
36
27
14
3
-1
-1
-1
-4
-8
-11
-9
-9
-18
-30
-35
-37
-38
-40
-39
-35
-27
-11
6
15
14
14
16
13
6
1
0
0
-1
0
0
0
1
2
2
3
2
2
6
9
13
18
23
24
24
24
24
23
21
20
17
13
6
-1
-9
-16
-20
-20
-18
-20
-22
-22
-25
-26
-24
-19
-13
-9
-6
-1
3
8
12
14
17
22
28
28
24
20
22
26
25
18
6
-8
-18
-24
-29
-33
-39
-42
-42
-39
-35
-28
-20
-10
1
13
20
25
33
41
43
36
30
24
16
8
3
-4
-13
-21
-24
-25
-26
-29
-32
-31
-26
-21
-13
0
14
23
28
30
33
36
39
39
33
23
13
8
4
-4
-19
-32
-39
-41
-42
-46
-49
-47
-37
-21
-5
5
14
20
24
26
27
26
26
30
33
30
25
20
15
9
5
4
3
-1
-7
-8
-4
0
2
0
-5
-11
-15
-19
-23
-26
-25
-23
-20
-14
-5
1
4
5
7
10
14
16
17
16
12
7
4
-1
-11
-19
-19
-16
-14
-13
-9
-2
4
14
25
30
31
35
41
41
34
22
11
-2
-19
-33
-39
-42
-45
-46
-47
-48
-48
-41
-28
-15
-5
5
16
25
30
32
32
32
33
33
31
29
26
22
17
11
6
5
3
0
-6
-10
-14
-21
-31
-34
-33
-30
-23
-14
-5
2
8
11
12
14
18
19
15
7
2
0
-5
-12
-20
-24
-21
-17
-13
-11
-12
-13
-10
-6
-3
-1
0
1
3
5
3
0
2
9
16
18
16
15
14
13
15
17
16
12
10
14
20
22
20
14
3
-7
-15
-21
-25
-28
-28
-25
-17
-5
5
12
9
1
-1
0
5
8
10
11
8
2
-1
-5
-12
-19
-20
-17
-13
-6
0
5
8
9
10
10
12
16
19
17
10
5
2
0
-2
-6
-12
-16
-20
-20
-20
-21
-24
-23
-14
0
15
29
40
48
54
55
49
37
18
-4
-24
-37
-48
-61
-71
-74
-73
-74
-77
-72
-57
-46
-34
-17
3
27
48
64
73
74
69
64
57
49
41
40
41
37
29
22
16
8
-1
-7
-9
-6
-2
-2
-7
-16
-21
-21
-18
-16
-13
-10
-7
-7
-10
-12
-11
-9
-1
8
11
8
4
4
4
2
4
9
16
20
20
14
2
-13
-27
-36
-38
-38
-38
-41
-44
-42
-39
-35
-32
-26
-16
-8
-2
5
15
23
28
32
31
27
23
21
17
10
5
7
10
12
14
16
21
27
34
39
41
44
50
53
48
37
22
6
-13
-35
-49
-57
-65
-72
-75
-75
-75
-74
-66
-51
-37
-27
-17
-6
6
20
32
41
49
60
67
65
58
51
49
50
52
52
49
39
24
9
-6
-30
-58
-76
-81
-83
-82
-76
-65
-56
-48
-36
-22
-9
3
16
29
39
43
44
45
46
47
44
35
28
30
38
38
26
12
-1
-16
-26
-29
-30
-35
-43
-48
-47
-41
-30
-10
9
21
26
30
30
25
16
10
3
-5
-13
-16
-20
-28
-37
-40
-32
-16
11
48
74
84
86
79
63
45
28
12
-5
-27
-43
-51
-57
-67
-80
-89
-90
-85
-76
-69
-60
-45
-26
-5
13
28
37
42
45
49
56
63
69
76
81
79
72
64
54
43
32
22
9
-6
-23
-33
-40
-46
-53
-57
-56
-51
-45
-38
-29
-18
-4
8
18
28
36
41
43
44
44
40
30
18
3
-16
-35
-48
-58
-71
-88
-97
-92
-81
-69
-56
-41
-26
-12
1
17
29
36
45
56
66
73
79
87
95
97
90
73
51
27
5
-13
-31
-45
-56
-68
-77
-78
-73
-70
-66
-57
-48
-42
-32
-13
6
21
31
40
51
55
53
49
44
40
37
34
31
25
20
22
29
33
33
26
13
1
-8
-17
-28
-36
-38
-36
-35
-38
-42
-45
-47
-51
-56
-56
-50
-38
-19
-3
-1
-8
-9
-4
-1
-1
1
6
11
17
22
27
31
38
47
51
49
48
49
46
41
36
32
25
13
5
3
0
-11
-20
-22
-22
-24
-25
-24
-21
-17
-12
-10
-9
-6
-1
1
-1
-8
-13
-13
-12
-13
-14
-15
-13
-9
-5
-4
-5
-5
-3
-1
-1
0
3
6
7
8
7
5
5
10
12
9
4
0
-7
-18
-25
-27
-27
-24
-12
0
10
19
32
42
42
37
30
20
7
-1
-4
-6
-13
-21
-26
-29
-36
-44
-51
-53
-48
-40
-27
-12
3
18
29
37
44
49
50
49
47
46
46
46
45
41
34
24
17
16
15
9
1
-4
-8
-15
-25
-35
-38
-37
-40
-44
-48
-53
-55
-51
-41
-25
-2
22
40
49
46
37
27
17
9
1
-6
-15
-20
-22
-22
-21
-12
2
14
16
11
1
-13
-25
-28
-24
-22
-21
-20
-21
-22
-21
-17
-16
-15
-9
-2
1
2
5
13
22
35
50
57
55
49
42
33
20
8
6
9
10
7
3
0
1
6
11
13
14
16
17
13
6
1
-4
-11
-17
-22
-28
-31
-32
-30
-30
-34
-39
-38
-32
-26
-20
-11
-1
8
15
21
27
34
40
43
43
37
28
21
16
10
1
-7
-12
-14
-11
-4
-1
-1
3
10
13
7
-4
-16
-22
-25
-30
-37
-42
-40
-35
-35
-41
-43
-39
-33
-25
-18
-13
-12
-13
-11
-4
1
5
12
26
41
49
48
44
37
28
23
19
15
17
27
40
47
48
44
38
29
22
16
8
-5
-17
-24
-31
-42
-52
-54
-52
-49
-49
-50
-48
-43
-35
-25
-13
3
22
37
45
51
56
57
53
46
37
28
20
12
4
-6
-18
-26
-29
-32
-33
-30
-26
-21
-13
-3
6
13
21
29
35
35
30
27
25
22
18
11
2
-12
-26
-33
-37
-42
-45
-44
-38
-30
-22
-16
-13
-11
-6
0
6
10
14
20
23
22
20
19
19
16
13
12
11
8
5
0
-11
-20
-19
-17
-18
-14
-5
3
11
17
17
13
10
8
7
2
-4
-7
-6
-5
-5
-8
-12
-18
-23
-25
-29
-39
-47
-47
-40
-33
-25
-17
-5
5
13
21
27
34
46
61
75
88
94
93
81
66
50
32
11
-6
-12
-16
-31
-52
-64
-67
-66
-63
-60
-55
-49
-43
-37
-34
-32
-25
-11
1
9
16
24
31
34
32
26
19
13
11
10
3
-2
-3
-1
-1
-1
1
3
6
9
12
13
12
19
31
40
45
53
64
71
68
56
41
20
-7
-30
-45
-60
-81
-97
-104
-100
-93
-87
-81
-74
-66
-55
-41
-22
-1
18
33
45
57
66
69
65
58
51
42
34
30
23
8
-6
-12
-9
-2
5
11
15
18
22
26
27
24
20
15
8
0
-5
-7
-11
-22
-34
-43
-49
-56
-61
-60
-60
-60
-53
-39
-26
-15
-4
4
13
19
25
30
40
60
82
95
100
101
97
88
74
57
34
4
-23
-37
-39
-42
-51
-54
-49
-45
-49
-58
-62
-60
-57
-52
-47
-42
-34
-24
-13
-9
-9
-11
-13
-17
-21
-20
-15
-9
0
5
3
2
8
21
35
41
42
43
45
47
50
54
59
68
83
91
82
65
48
30
11
-4
-18
-32
-46
-57
-64
-75
-89
-101
-100
-86
-68
-48
-28
-9
5
21
40
56
68
80
86
80
64
44
26
9
-8
-25
-37
-46
-49
-49
-50
-50
-47
-41
-31
-19
-5
5
9
14
28
43
50
53
56
57
54
45
34
20
5
-7
-21
-36
-54
-70
-80
-85
-90
-89
-81
-71
-62
-53
-38
-15
7
27
43
55
65
72
74
72
67
62
61
62
57
44
27
12
0
-8
-17
-26
-31
-31
-26
-19
-9
0
5
8
6
4
2
2
7
18
26
22
13
5
-1
-10
-20
-29
-39
-51
-61
-68
-70
-67
-59
-48
-36
-25
-15
-5
4
17
38
60
86
117
137
135
119
94
62
31
7
-11
-31
-53
-68
-70
-70
-77
-88
-91
-83
-73
-61
-46
-32
-22
-14
-1
15
32
46
61
73
76
70
58
47
32
16
3
-4
-9
-16
-29
-42
-49
-52
-45
-26
-8
0
1
4
11
19
22
22
24
28
30
25
19
16
16
16
12
2
-13
-28
-30
-23
-22
-29
-31
-25
-15
-8
-5
-3
3
16
33
44
42
39
41
45
42
32
19
10
2
-5
-16
-28
-38
-46
-57
-77
-92
-94
-87
-76
-64
-51
-36
-23
-8
10
26
37
44
54
68
77
78
75
75
80
83
82
77
63
41
17
-8
-33
-48
-55
-60
-63
-66
-68
-67
-58
-44
-32
-21
-8
5
19
32
44
53
55
51
44
32
16
1
-5
-7
-16
-31
-38
-32
-28
-29
-34
-36
-32
-26
-17
-7
-1
4
10
16
17
18
26
38
50
55
51
41
26
12
-1
-16
-31
-40
-48
-60
-68
-69
-65
-54
-35
-15
-3
0
1
9
21
29
35
39
42
42
42
41
37
31
28
31
33
27
14
4
0
-3
-11
-24
-37
-46
-50
-53
-56
-50
-35
-19
-8
-2
5
15
25
30
34
39
41
38
35
32
23
14
12
12
16
24
32
34
28
19
13
8
7
15
29
35
28
14
0
-19
-38
-52
-70
-95
-120
-131
-126
-114
-99
-83
-68
-56
-46
-32
-13
2
13
24
40
60
75
83
84
82
80
74
66
56
39
19
6
0
0
-2
-11
-21
-22
-19
-18
-13
-3
9
15
13
8
4
5
10
21
31
34
30
28
22
7
-7
-17
-21
-24
-28
-34
-42
-49
-48
-41
-28
-13
-2
1
4
9
14
18
19
19
22
27
32
37
38
33
27
20
12
1
-6
-9
-8
-17
-33
-41
-39
-33
-28
-26
-24
-18
-10
0
12
22
26
28
25
12
-3
-13
-18
-17
-18
-21
-28
-34
-34
-27
-24
-24
-19
-6
5
9
5
1
2
5
9
9
4
-1
-2
0
0
-5
-8
-1
5
6
5
7
7
11
18
21
17
13
16
23
27
29
29
26
20
16
17
19
22
30
38
45
47
43
38
34
29
23
17
14
12
3
-16
-39
-53
-60
-66
-78
-88
-91
-90
-83
-73
-66
-58
-46
-27
-6
8
15
19
23
30
40
53
62
64
60
52
38
17
-6
-25
-32
-31
-30
-27
-19
-13
-12
-11
-8
-2
8
23
36
41
39
36
32
25
16
9
9
18
30
27
0
-29
-45
-51
-55
-62
-65
-64
-60
-54
-47
-40
-29
-14
4
24
41
55
68
85
104
114
113
103
84
57
31
9
-7
-21
-32
-41
-51
-62
-73
-81
-84
-79
-70
-57
-37
-15
2
14
21
29
36
43
51
66
91
112
118
109
75
18
-31
-61
-88
-117
-138
-145
-146
-142
-124
-93
-57
-24
7
36
53
57
57
56
58
61
63
60
58
62
61
47
28
8
-9
-20
-28
-36
-40
-40
-36
-30
-25
-20
-11
0
8
13
20
34
50
57
59
59
59
54
49
46
33
7
-17
-33
-42
-54
-69
-77
-76
-71
-62
-51
-43
-39
-33
-23
-11
-1
6
12
16
20
20
17
13
12
14
13
11
15
22
29
33
35
41
51
62
67
59
42
27
17
5
-10
-23
-31
-33
-33
-34
-34
-35
-39
-43
-45
-48
-54
-57
-49
-35
-25
-22
-20
-14
0
15
34
55
69
74
72
59
32
7
-9
-23
-39
-52
-57
-56
-53
-50
-53
-55
-50
-38
-21
0
23
49
71
85
92
90
81
70
58
46
29
14
7
6
6
6
9
9
4
2
10
12
2
-12
-30
-51
-66
-72
-73
-73
-72
-65
-53
-34
-7
17
36
48
51
54
61
64
55
38
20
0
-18
-29
-36
-42
-41
-33
-26
-26
-31
-37
-35
-21
0
18
30
43
55
59
48
24
3
-4
-9
-16
-21
-21
-18
-17
-20
-28
-37
-40
-35
-24
-15
-10
-1
20
53
93
136
171
183
172
144
100
47
-17
-88
-140
-163
-170
-178
-190
-193
-179
-158
-130
-92
-51
-12
32
98
178
233
248
235
189
116
46
-2
-37
-74
-115
-136
-125
-101
-82
-72
-68
-65
-59
-40
-4
37
75
111
156
201
211
179
130
70
1
-55
-94
-123
-142
-150
-143
-126
-104
-75
-34
10
52
81
85
72
57
48
46
48
52
61
74
77
53
2
-51
-91
-117
-137
-149
-142
-116
-84
-56
-33
-16
-2
14
42
82
108
109
98
79
55
32
19
12
5
-5
-13
-9
6
44
99
130
114
71
19
-35
-79
-107
-123
-132
-133
-125
-109
-92
-75
-53
-31
-13
4
24
48
66
72
73
73
74
73
72
70
64
56
51
48
45
46
52
51
42
28
-2
-56
-103
-122
-122
-123
-131
-129
-114
-96
-78
-54
-26
-1
18
30
29
22
20
31
57
96
127
132
114
89
67
55
49
37
10
-25
-52
-59
-50
-42
-44
-52
-55
-51
-45
-38
-34
-34
-35
-30
-19
-7
6
24
42
55
61
70
86
107
127
122
87
41
-14
-77
-117
-119
-102
-89
-89
-96
-103
-105
-94
-69
-39
-12
7
30
63
89
95
85
68
56
50
41
25
8
-6
-4
30
78
89
40
-27
-70
-83
-78
-63
-51
-44
-44
-49
-52
-41
-15
18
55
82
86
73
59
50
45
43
38
29
30
53
71
61
39
50
93
101
42
-46
-132
-204
-247
-260
-256
-248
-239
-221
-187
-138
-75
-6
44
82
121
158
181
183
169
152
133
117
109
110
119
133
141
133
104
61
14
-30
-60
-66
-49
-18
3
7
15
37
50
37
9
-23
-66
-120
-173
-201
-196
-173
-148
-128
-100
-59
-21
12
50
86
106
107
93
74
60
53
51
59
71
69
48
20
-7
-27
-36
-40
-47
-47
-30
-8
4
7
1
-19
-53
-81
-83
-64
-51
-56
-63
-59
-39
-10
15
33
44
51
51
45
39
44
66
97
112
103
78
44
3
-33
-55
-64
-61
-52
-48
-49
-46
-15
44
83
74
45
16
-5
-15
-21
-30
-48
-72
-95
-109
-110
-93
-60
-21
12
40
61
76
83
94
121
154
177
176
147
98
44
-6
-45
-67
-79
-97
-127
-151
-155
-145
-126
-106
-83
-51
-15
22
60
83
85
80
79
79
71
52
35
25
13
-7
-29
-41
-37
-25
-18
-22
-30
-40
-48
-41
-18
10
32
37
30
35
63
112
159
168
132
76
19
-23
-49
-67
-89
-120
-157
-178
-169
-141
-104
-62
-18
17
27
12
-6
-10
-6
-6
-14
-29
-43
-46
-35
0
52
102
137
145
128
112
113
108
79
36
-12
-60
-97
-115
-100
-50
1
28
36
50
73
90
97
90
59
10
-33
-65
-85
-92
-96
-99
-86
-58
-31
-11
4
11
0
-24
-38
-23
4
24
32
33
34
35
32
40
87
152
185
167
91
-33
-149
-215
-234
-224
-197
-160
-109
-25
85
164
180
150
98
38
-10
-39
-44
-24
15
63
106
134
144
128
78
4
-72
-140
-187
-199
-180
-145
-102
-62
-33
-10
9
24
32
38
43
45
62
100
124
114
95
69
19
-35
-69
-79
-91
-115
-119
-75
0
82
154
186
173
133
68
-23
-109
-159
-164
-118
-36
36
75
75
34
-27
-77
-107
-135
-157
-163
-149
-110
-40
57
154
206
215
226
265
298
265
168
57
-34
-110
-162
-182
-174
-174
-207
-230
-198
-124
-52
-8
14
33
59
93
125
148
164
170
153
115
65
12
-33
-66
-85
-99
-120
-136
-137
-130
-121
-110
-86
-45
1
49
112
216
337
382
326
228
98
-62
-197
-267
-300
-327
-338
-277
-144
0
121
198
207
152
72
0
-56
-88
-91
-77
-47
1
55
97
121
122
107
98
107
118
139
178
195
161
94
-2
-135
-259
-342
-383
-361
-277
-170
-74
-8
15
8
-3
-5
4
15
17
21
43
81
129
180
209
218
227
221
177
105
33
-27
-87
-146
-171
-136
-69
-15
14
29
32
12
-36
-90
-111
-97
-66
-6
70
107
87
42
-17
-88
-145
-179
-190
-173
-129
-81
-48
-21
16
60
96
131
170
196
196
170
131
86
30
-29
-68
-73
-49
-8
35
73
97
92
44
-35
-107
-142
-137
-86
-3
67
97
91
57
-5
-75
-123
-153
-185
-208
-186
-117
-24
62
112
128
136
151
161
144
108
73
42
4
-39
-75
-100
-115
-118
-99
-52
12
83
139
158
143
109
47
-42
-119
-156
-168
-155
-98
3
112
188
202
152
62
-44
-148
-237
-298
-312
-279
-211
-102
40
179
287
342
329
267
188
115
54
13
-4
-14
-27
-28
-13
-14
-54
-113
-163
-192
-191
-154
-93
-37
11
71
118
125
96
43
-10
-28
-14
-5
-11
-29
-53
-71
-67
-31
17
43
39
28
30
45
64
86
113
134
143
150
155
137
85
5
-69
-125
-170
-206
-227
-227
-208
-181
-136
-71
-10
33
74
108
115
94
63
29
2
1
40
97
136
135
99
44
-16
-73
-119
-153
-174
-170
-105
41
188
255
250
205
138
66
7
-26
-35
-32
-39
-64
-103
-162
-239
-301
-322
-303
-246
-158
-63
21
89
140
181
221
267
315
345
331
274
194
108
-1
-133
-239
-295
-324
-322
-269
-174
-67
17
73
112
138
156
175
185
168
121
68
36
25
12
-9
-39
-76
-113
-140
-146
-130
-106
-91
-83
-68
-39
-8
3
-9
-33
-48
-30
52
170
216
170
97
30
-35
-90
-117
-114
-94
-72
-39
12
68
111
144
160
154
128
89
55
44
37
8
-40
-100
-153
-188
-203
-187
-142
-96
-67
-31
48
154
216
217
197
172
139
92
40
-2
-54
-123
-169
-177
-169
-160
-147
-125
-79
3
100
155
152
119
83
51
29
13
-6
-17
-2
18
13
-18
-61
-104
-130
-129
-106
-61
-6
36
70
113
154
171
151
109
72
57
58
42
-10
-83
-160
-226
-257
-244
-203
-134
-40
46
119
192
232
199
113
23
-51
-116
-158
-149
-98
-45
-8
24
67
110
135
123
80
40
22
19
21
25
23
13
10
20
46
89
132
140
94
8
-84
-165
-226
-257
-254
-230
-197
-149
-55
75
164
179
140
72
20
28
79
128
153
147
118
71
16
-53
-135
-191
-199
-182
-151
-105
-48
5
41
52
61
114
219
324
364
318
207
61
-97
-271
-444
-541
-535
-462
-297
-42
168
247
238
192
131
81
50
36
44
77
115
142
150
129
89
48
18
-4
-20
-15
8
29
30
10
-22
-57
-79
-76
-58
-52
-66
-90
-100
-78
-31
14
40
38
18
-10
-33
-38
-41
-66
-101
-127
-136
-123
-88
-33
35
97
145
171
165
137
104
66
22
-10
-26
-34
-44
-50
-36
0
42
78
94
83
55
23
-8
-36
-52
-58
-58
-42
-3
32
53
69
68
41
5
-20
-33
-24
-4
-7
-36
-61
-65
-52
-22
26
78
94
60
16
-7
-21
-51
-96
-121
-105
-67
-31
-5
2
-7
-35
-76
-110
-98
-38
26
73
99
101
79
42
3
-31
-51
-51
-30
13
64
91
86
63
33
9
4
13
17
17
21
26
29
34
38
33
23
16
14
17
21
21
15
0
-16
-17
-5
0
-14
-35
-31
5
47
64
49
15
-22
-57
-83
-116
-165
-190
-171
-137
-106
-68
-23
12
27
29
29
31
30
31
39
53
66
75
82
85
83
72
52
29
7
-11
-19
-20
-23
-26
-19
-4
11
22
31
39
48
56
57
47
30
15
11
17
23
15
0
-10
-13
-6
15
43
50
33
3
-31
-70
-112
-156
-205
-256
-278
-250
-183
-96
-7
56
92
117
140
155
152
135
113
87
63
46
51
80
102
88
43
-8
-55
-97
-131
-142
-130
-111
-79
-25
26
55
66
68
64
50
36
32
36
39
39
36
24
2
-21
-34
-25
2
24
16
-8
-26
-40
-61
-85
-89
-70
-48
-28
6
53
91
103
89
67
52
42
32
12
-23
-60
-84
-100
-118
-135
-137
-118
-87
-48
-6
28
59
93
124
143
144
140
143
137
108
68
32
1
-40
-102
-161
-203
-225
-214
-166
-107
-49
11
65
94
101
96
89
89
98
107
107
97
84
70
59
44
20
0
-6
-7
-13
-24
-39
-53
-54
-48
-50
-67
-85
-92
-87
-72
-54
-43
-34
-14
14
32
26
11
7
21
58
102
127
126
96
42
-13
-61
-110
-166
-224
-256
-243
-193
-117
-29
45
99
135
156
161
152
140
140
137
109
58
2
-43
-66
-64
-49
-26
-10
-5
2
19
38
48
43
23
8
8
18
26
22
6
-6
-4
6
11
7
0
-6
-14
-23
-29
-29
-28
-28
-24
-15
-6
0
-2
-9
-9
-2
3
0
-9
-18
-23
-29
-30
-24
-14
-6
0
2
0
-13
-31
-45
-50
-47
-35
-15
4
20
41
60
68
62
39
3
-33
-59
-72
-70
-56
-34
-4
26
51
64
65
53
38
26
22
24
22
16
7
-2
-10
-14
-17
-23
-28
-21
-2
18
37
56
68
68
61
52
43
35
27
19
8
-7
-24
-37
-45
-53
-64
-71
-72
-73
-74
-68
-53
-37
-26
-18
-9
3
17
26
29
23
16
10
5
-1
-6
-2
8
21
32
39
36
28
21
10
-4
-17
-21
-19
-16
-13
-10
-5
-2
1
8
13
15
17
20
21
18
13
9
5
0
-5
-9
-12
-17
-22
-26
-30
-33
-33
-28
-22
-15
-6
5
16
25
30
32
26
19
17
18
17
10
0
-9
-15
-16
-12
-7
-8
-11
-12
-14
-18
-19
-14
-5
4
15
23
25
24
22
18
15
16
20
20
14
6
5
8
5
-5
-13
-15
-17
-20
-22
-24
-25
-21
-13
1
20
38
49
45
25
1
-10
-14
-14
-11
-10
-14
-19
-20
-14
-4
5
14
17
11
3
1
0
-3
-8
-11
-11
-10
-6
-1
2
3
6
8
7
6
8
8
2
-10
-20
-23
-22
-19
-13
-5
0
5
7
3
-1
-2
0
7
14
17
16
12
7
5
6
7
7
8
8
6
4
3
4
3
-1
-6
-6
-8
-12
-13
-14
-16
-20
-21
-19
-16
-12
-8
-3
-1
2
7
10
13
18
23
25
22
17
13
11
12
14
16
14
7
0
-13
-31
-49
-59
-61
-62
-61
-54
-40
-25
-7
11
28
41
52
63
70
71
67
62
53
43
34
29
20
7
-2
-13
-27
-38
-45
-50
-55
-58
-53
-44
-33
-20
-8
-2
1
11
29
47
55
50
32
7
-13
-27
-35
-39
-36
-31
-30
-30
-24
-13
-1
8
19
32
42
43
37
33
29
25
24
26
22
11
2
-3
-7
-12
-13
-13
-14
-19
-24
-27
-32
-36
-35
-28
-19
-14
-11
-7
-1
7
14
19
20
22
27
29
27
23
20
19
15
12
12
7
-2
-10
-15
-20
-26
-29
-28
-23
-18
-12
-6
-3
-1
2
7
9
12
18
23
22
18
16
18
19
17
14
8
0
-5
-12
-20
-24
-22
-19
-22
-31
-36
-32
-25
-18
-12
-8
-6
-1
9
21
27
28
31
32
26
18
15
13
4
-7
-16
-23
-29
-32
-31
-24
-12
0
11
21
27
27
24
21
20
21
21
17
9
-2
-13
-18
-19
-12
0
10
11
7
-2
-17
-28
-28
-25
-24
-24
-20
-15
-9
-2
5
10
15
23
33
38
33
26
23
16
5
-1
-1
-4
-10
-16
-21
-26
-29
-29
-25
-22
-18
-13
-6
2
10
16
17
18
22
25
25
23
20
19
15
9
5
5
0
-6
-8
-9
-17
-27
-31
-26
-19
-13
-7
-3
-2
0
5
12
16
19
23
25
22
16
8
3
0
3
12
15
9
-1
-16
-36
-51
-56
-55
-55
-52
-44
-36
-26
-13
-4
3
13
28
46
55
53
48
41
31
20
13
10
4
-4
-10
-16
-23
-29
-31
-26
-16
-7
0
6
14
17
19
21
23
26
31
35
34
31
26
21
16
11
4
-5
-14
-19
-21
-27
-37
-39
-34
-27
-18
-9
-6
-6
-4
-1
2
7
13
19
19
12
4
2
1
-2
-9
-10
-7
-8
-14
-18
-22
-25
-24
-15
-2
5
5
6
10
14
18
24
35
48
57
56
42
22
1
-18
-32
-38
-38
-38
-45
-51
-51
-54
-58
-56
-44
-27
-9
11
32
44
44
40
34
29
26
29
33
32
27
22
19
15
11
8
1
-7
-12
-12
-14
-17
-19
-18
-13
-8
-3
3
10
14
15
12
5
0
0
5
7
5
3
0
-5
-9
-6
-2
-8
-22
-27
-26
-30
-36
-38
-35
-32
-29
-23
-15
-8
0
11
22
34
44
50
52
49
45
42
36
28
20
13
4
-4
-10
-17
-28
-37
-36
-31
-24
-19
-13
-7
-2
2
9
13
17
22
28
30
28
23
19
10
0
-6
-3
-1
-3
-2
0
-2
-11
-27
-44
-55
-56
-49
-42
-35
-24
-9
-1
-1
-3
-1
2
5
5
5
7
13
22
27
28
30
34
35
30
23
17
14
11
4
-5
-14
-21
-26
-29
-31
-30
-23
-14
-6
2
11
21
29
33
34
36
34
29
21
8
-5
-15
-20
-22
-27
-29
-26
-22
-21
-21
-19
-16
-11
-2
12
25
29
27
24
21
14
8
6
2
-5
-8
-10
-16
-25
-28
-24
-16
-9
-2
7
16
20
22
21
19
18
18
17
13
8
2
-3
-8
-12
-16
-21
-27
-29
-28
-32
-36
-34
-27
-17
-8
-2
2
6
11
16
19
19
22
30
41
44
37
31
26
19
13
11
12
13
14
14
11
7
4
3
-3
-14
-26
-36
-44
-49
-50
-49
-48
-46
-40
-35
-32
-29
-27
-23
-16
-8
0
7
10
14
22
29
34
40
47
48
46
44
46
50
50
44
32
18
6
-1
-2
-2
-4
-7
-10
-14
-18
-19
-21
-28
-35
-38
-38
-37
-34
-29
-26
-26
-25
-21
-12
-1
9
21
31
40
50
57
56
50
41
31
19
10
5
1
-9
-19
-22
-23
-28
-35
-36
-29
-21
-13
-9
-6
-5
-3
-1
-2
-1
5
18
25
19
10
5
4
5
5
2
-4
-11
-18
-29
-40
-46
-44
-37
-26
-17
-9
-2
1
5
10
13
14
20
31
43
52
57
57
52
45
40
33
20
2
-12
-20
-28
-36
-41
-38
-30
-22
-16
-9
-1
6
10
12
13
14
16
16
9
-6
-19
-25
-25
-27
-33
-38
-40
-41
-44
-51
-55
-51
-42
-30
-14
0
13
25
44
76
102
111
109
103
93
76
54
32
8
-19
-42
-55
-65
-73
-78
-80
-81
-81
-77
-67
-54
-42
-27
-5
20
43
60
73
81
90
97
96
89
79
67
54
39
25
10
-5
-19
-27
-33
-43
-58
-68
-68
-61
-55
-49
-42
-35
-29
-20
-10
-3
2
11
18
21
21
21
21
20
19
21
23
24
21
16
6
-6
-16
-23
-28
-34
-37
-37
-36
-35
-32
-25
-18
-13
-6
0
3
5
7
10
13
16
18
14
8
6
6
4
0
-5
-5
-1
5
17
31
41
46
48
50
52
53
52
49
36
12
-10
-24
-32
-40
-49
-58
-71
-79
-81
-81
-79
-71
-59
-42
-22
-5
10
25
38
47
48
45
41
42
46
47
45
42
36
26
16
12
5
-7
-16
-14
-8
-5
-3
0
7
14
18
17
12
3
-2
-3
-3
-4
-5
-6
-7
-11
-14
-13
-7
-2
-1
-2
-8
-17
-22
-23
-17
-4
5
9
5
-5
-19
-29
-33
-33
-34
-38
-41
-40
-33
-25
-18
-12
-3
8
20
31
36
37
41
52
68
80
86
91
90
80
61
41
24
4
-19
-40
-53
-62
-68
-71
-73
-77
-79
-78
-77
-73
-63
-45
-24
-3
18
35
42
45
47
50
56
59
59
52
41
31
24
18
11
5
6
11
13
11
4
-1
-8
-12
-14
-18
-22
-22
-16
-14
-16
-18
-17
-11
0
11
22
26
25
18
9
2
0
-2
-7
-15
-23
-30
-37
-47
-53
-52
-53
-55
-54
-51
-44
-38
-26
-3
20
37
48
55
60
60
61
62
59
54
50
44
33
17
0
-12
-18
-21
-24
-29
-31
-28
-23
-20
-19
-17
-10
-1
3
5
7
9
11
13
17
21
25
25
25
28
31
30
25
14
-1
-14
-25
-37
-48
-54
-57
-58
-59
-57
-55
-53
-49
-39
-23
-3
14
28
37
40
43
47
45
38
32
30
31
30
26
16
1
-7
-7
-5
-8
-18
-24
-24
-23
-21
-12
2
14
24
35
42
45
50
56
61
59
57
59
62
57
39
11
-16
-39
-62
-84
-99
-106
-109
-108
-102
-90
-76
-60
-45
-32
-20
-8
7
28
49
61
64
62
61
59
60
65
66
55
41
33
26
10
-9
-21
-21
-15
-5
5
4
-9
-21
-32
-45
-54
-55
-50
-45
-48
-54
-56
-56
-53
-42
-28
-16
-4
4
7
4
0
1
8
18
24
27
32
41
51
59
64
66
68
67
58
46
34
26
22
19
19
18
10
-1
-10
-16
-21
-24
-21
-14
-9
-10
-11
-13
-16
-16
-10
-1
6
12
14
12
3
-8
-13
-11
-12
-20
-29
-35
-38
-36
-38
-46
-50
-47
-43
-41
-40
-39
-34
-27
-19
-9
1
10
22
42
66
84
94
97
90
74
58
46
30
9
-11
-26
-38
-52
-66
-74
-75
-70
-62
-50
-33
-17
-5
2
9
19
32
44
51
56
62
67
64
55
44
30
18
10
1
-10
-23
-31
-30
-28
-28
-28
-27
-27
-28
-26
-23
-20
-18
-13
-7
0
3
4
7
14
25
32
30
24
20
15
6
-1
-5
-5
-1
0
0
-2
-2
0
1
-1
-5
-7
-7
-7
-10
-17
-22
-22
-15
-2
8
11
7
3
1
0
-5
-9
-4
7
17
20
19
11
-1
-11
-13
-12
-7
3
15
18
13
6
1
0
2
7
8
5
3
3
0
-9
-20
-29
-39
-49
-52
-50
-46
-37
-20
-4
1
3
2
3
7
12
16
20
20
20
25
30
33
34
33
31
25
19
17
20
18
11
4
1
1
3
6
8
12
20
26
29
29
30
32
32
28
19
1
-18
-30
-35
-40
-48
-52
-52
-53
-58
-68
-78
-80
-75
-67
-58
-50
-41
-27
-7
13
27
32
35
39
48
62
75
81
75
63
52
44
36
26
17
9
2
-3
-8
-11
-10
-5
0
-1
-6
-11
-16
-20
-22
-21
-20
-18
-17
-17
-22
-26
-27
-26
-28
-31
-28
-17
-5
6
20
30
31
30
30
28
24
24
27
31
29
25
26
29
26
18
8
-1
-10
-17
-24
-31
-35
-34
-29
-23
-19
-17
-14
-10
-3
3
9
9
2
-3
-6
-9
-12
-14
-11
-8
-9
-14
-20
-25
-24
-20
-18
-20
-26
-27
-22
-17
-8
7
22
33
44
54
60
63
65
66
61
47
31
17
4
-8
-21
-32
-37
-30
-8
17
26
20
13
6
-1
-7
-7
-3
-2
-4
-9
-17
-25
-29
-32
-38
-45
-45
-31
-2
24
35
31
22
15
10
5
-2
-10
-17
-25
-34
-44
-52
-60
-63
-59
-50
-39
-24
-6
10
21
27
34
40
43
43
43
44
50
65
87
105
108
98
80
60
34
5
-15
-28
-37
-47
-59
-68
-73
-74
-77
-82
-86
-82
-71
-44
-6
24
37
41
45
48
46
41
37
44
62
72
65
48
23
-5
-30
-43
-51
-57
-57
-48
-39
-38
-43
-48
-50
-49
-47
-44
-38
-27
-16
-7
1
15
32
47
57
67
80
93
102
105
100
84
66
53
46
36
16
-5
-25
-40
-53
-66
-78
-87
-91
-78
-37
4
17
2
-28
-63
-86
-93
-94
-94
-95
-89
-78
-65
-48
-27
-10
0
8
23
46
70
87
97
105
110
109
103
94
84
80
81
86
90
87
78
66
56
51
42
22
-1
-16
-28
-44
-65
-82
-89
-93
-100
-113
-123
-125
-120
-110
-99
-84
-63
-37
-3
36
70
89
96
94
87
76
63
50
39
25
11
1
-1
-4
-14
-27
-41
-53
-59
-60
-54
-46
-40
-35
-25
-12
3
15
19
15
7
0
-3
-7
-11
-10
-4
0
6
18
33
46
51
43
23
3
-4
-5
-9
-17
-21
-16
-6
9
29
42
43
37
29
22
16
12
12
11
6
0
-4
-6
-8
-14
-21
-25
-21
-12
2
11
13
12
12
12
8
2
0
1
1
0
-7
-16
-22
-21
-12
-1
9
22
41
55
51
33
7
-18
-38
-47
-51
-45
-13
24
37
22
-3
-29
-44
-46
-45
-52
-65
-71
-60
-39
-23
-19
-24
-30
-35
-39
-43
-45
-48
-42
-26
-8
3
8
12
28
60
99
130
144
140
127
111
96
79
59
39
21
2
-11
-15
-11
-6
-5
-9
-12
-9
-1
5
5
3
11
23
34
43
57
74
72
48
19
2
-5
-20
-43
-66
-85
-102
-109
-109
-113
-129
-150
-164
-168
-172
-178
-181
-173
-157
-133
-102
-68
-34
0
44
112
177
219
239
249
259
264
259
252
253
259
249
212
153
75
-14
-86
-133
-167
-198
-227
-240
-236
-220
-194
-165
-142
-122
-94
-53
-5
38
70
88
101
118
132
133
125
108
80
46
17
-8
-36
-71
-102
-118
-120
-110
-90
-63
-30
13
66
110
123
108
86
64
41
18
-7
-32
-59
-88
-112
-121
-115
-94
-58
-18
19
50
74
92
104
111
115
115
112
107
97
75
39
-6
-41
-58
-66
-71
-74
-75
-74
-72
-70
-68
-61
-48
-34
-25
-20
-13
-1
10
18
25
31
37
43
49
56
60
61
60
55
45
30
14
3
-4
-15
-26
-34
-39
-46
-57
-68
-76
-81
-83
-79
-67
-47
-25
-7
5
15
22
26
36
50
61
63
58
50
45
40
31
19
6
-5
-15
-21
-26
-25
-17
-11
-15
-24
-34
-44
-49
-48
-42
-21
12
42
55
53
37
17
1
-10
-23
-36
-50
-61
-67
-55
-27
1
21
37
55
70
75
75
73
69
66
66
65
57
46
38
31
22
9
-2
-11
-16
-15
-13
-14
-20
-29
-34
-37
-40
-38
-30
-20
-12
-8
-10
-16
-22
-27
-29
-30
-28
-23
-16
-16
-21
-26
-27
-26
-26
-28
-29
-26
-21
-14
-6
-3
-3
0
12
32
50
65
77
78
65
49
39
34
26
14
0
-15
-29
-45
-64
-76
-82
-83
-81
-73
-62
-52
-43
-29
-6
19
42
56
73
103
128
134
124
103
76
52
35
18
-8
-45
-77
-90
-83
-59
-28
-2
10
13
3
-18
-40
-51
-56
-58
-53
-41
-23
0
26
51
74
96
115
128
125
101
65
28
-11
-54
-86
-103
-110
-109
-102
-93
-84
-73
-62
-46
-26
-9
4
20
40
54
63
65
63
61
61
61
57
50
44
41
39
36
28
10
-10
-21
-25
-26
-24
-18
-11
-8
-13
-24
-35
-42
-49
-51
-43
-23
0
22
40
54
64
65
51
18
-27
-65
-87
-99
-107
-110
-106
-96
-82
-65
-44
-22
2
37
90
154
192
190
163
120
72
30
-6
-36
-55
-59
-51
-45
-50
-67
-84
-90
-86
-81
-75
-62
-38
-11
11
34
58
71
76
80
83
79
75
76
79
75
62
46
36
30
18
6
4
11
15
7
-16
-41
-55
-56
-48
-39
-35
-38
-41
-33
-16
-11
-23
-38
-48
-61
-74
-82
-81
-73
-66
-60
-48
-32
-13
8
25
36
41
50
64
75
79
79
83
91
96
98
96
92
87
76
49
5
-58
-134
-186
-201
-193
-167
-125
-79
-36
1
28
50
71
89
104
121
138
146
148
147
147
144
126
89
44
-2
-52
-94
-123
-146
-174
-207
-223
-211
-188
-160
-124
-89
-56
-22
15
49
67
70
68
65
62
60
58
54
50
51
56
61
63
61
54
45
44
59
75
65
36
14
1
-24
-70
-111
-131
-137
-133
-110
-66
-8
39
62
61
50
42
41
49
58
53
39
22
6
-4
-6
-5
-7
-15
-26
-25
-13
-6
-25
-66
-101
-114
-111
-92
-60
-27
0
15
25
41
54
53
46
49
61
74
83
90
98
104
105
105
103
91
77
80
86
65
5
-78
-149
-192
-218
-238
-248
-231
-182
-109
-37
9
19
8
-4
-6
3
19
31
37
36
24
8
0
5
22
46
68
85
101
117
132
133
118
97
75
56
45
40
35
31
26
9
-17
-45
-81
-122
-150
-160
-162
-158
-142
-112
-66
-2
69
119
139
139
115
72
30
7
5
14
9
-14
-23
-10
-1
6
14
-2
-45
-94
-147
-201
-226
-209
-173
-138
-104
-66
-25
20
77
125
152
166
173
174
169
163
158
146
121
89
63
47
28
0
-25
-37
-42
-48
-54
-53
-41
-27
-21
-28
-40
-50
-62
-84
-92
-44
38
91
89
64
50
42
22
-15
-63
-102
-124
-138
-150
-157
-146
-112
-56
21
95
131
129
115
107
109
108
101
102
101
71
20
-31
-73
-106
-135
-148
-146
-140
-132
-113
-78
-36
7
44
53
34
8
-4
-2
13
52
106
147
155
139
131
147
167
156
117
70
21
-34
-86
-112
-114
-107
-102
-104
-115
-127
-126
-107
-75
-42
-17
-2
7
21
38
53
67
83
94
91
75
58
40
16
-4
-19
-38
-65
-91
-104
-105
-98
-81
-56
-30
-6
14
37
66
82
76
58
57
93
140
156
127
69
6
-38
-62
-77
-100
-129
-144
-139
-123
-93
-44
3
32
40
36
28
22
22
28
57
107
132
125
133
161
155
94
3
-84
-160
-220
-248
-246
-233
-204
-150
-91
-42
0
48
95
124
135
134
124
113
108
109
107
101
88
58
23
3
4
7
-3
-23
-42
-50
-36
-11
1
-7
-43
-100
-141
-149
-137
-117
-93
-71
-51
-26
9
52
85
99
101
88
69
55
52
51
48
40
27
18
23
56
106
124
94
53
30
12
-21
-66
-111
-159
-205
-226
-211
-169
-111
-48
-6
16
34
53
71
82
85
84
95
129
165
177
164
119
41
-44
-113
-165
-204
-232
-243
-235
-209
-151
-44
88
202
263
263
216
143
68
1
-53
-83
-74
-35
2
13
1
-9
-7
3
14
17
8
-6
-20
-23
-7
23
67
118
156
164
140
95
42
-22
-89
-115
-92
-59
-39
-37
-57
-92
-130
-175
-231
-278
-294
-280
-240
-180
-101
-5
94
187
260
285
269
239
210
188
178
168
147
120
105
106
100
61
-7
-70
-104
-119
-129
-131
-111
-67
-24
3
24
38
49
66
70
38
-24
-93
-154
-204
-243
-262
-261
-249
-226
-188
-132
-62
13
104
203
257
253
228
209
196
174
139
99
60
24
-4
-19
-22
-14
-5
1
15
37
59
73
72
59
48
36
10
-15
-30
-48
-88
-139
-165
-166
-163
-152
-120
-82
-52
-36
-38
-58
-74
-69
-43
0
50
82
90
94
108
127
128
107
84
75
66
45
22
10
3
-9
-24
-15
31
112
186
193
128
30
-78
-186
-258
-291
-314
-326
-298
-213
-86
40
135
186
189
160
125
92
66
54
58
63
55
38
27
26
36
50
59
59
53
44
38
26
-1
-43
-96
-159
-205
-220
-207
-160
-88
-29
2
22
53
91
111
110
115
167
258
304
271
195
79
-82
-234
-327
-363
-368
-363
-333
-257
-145
-14
103
167
176
158
133
120
118
116
107
102
111
125
132
133
133
118
83
39
-1
-39
-77
-104
-114
-117
-119
-111
-84
-45
-11
9
16
7
-13
-38
-22
61
135
134
80
7
-65
-122
-161
-191
-223
-256
-261
-218
-115
24
126
154
137
115
112
117
115
110
120
153
186
200
190
158
109
56
1
-61
-132
-187
-201
-187
-166
-134
-91
-55
-32
-16
-7
-5
-4
1
11
22
30
35
36
36
45
69
87
88
79
60
28
-5
-30
-46
-47
-26
10
42
56
47
17
-27
-77
-118
-138
-124
-82
-21
55
131
161
124
55
-16
-92
-174
-236
-265
-268
-229
-139
-36
47
113
179
245
279
265
221
170
127
96
70
45
29
18
1
-24
-56
-95
-139
-166
-161
-128
-84
-54
-37
-14
10
28
33
31
42
80
125
140
125
104
61
-16
-95
-149
-189
-222
-239
-221
-169
-103
-29
45
99
118
115
101
89
80
72
66
63
58
47
43
60
105
151
165
150
120
65
-24
-118
-191
-234
-251
-248
-220
-170
-109
-33
56
114
125
121
123
126
122
107
71
14
-43
-77
-80
-53
-12
14
22
27
28
12
-15
-46
-76
-111
-147
-158
-140
-116
-91
-50
8
69
111
126
120
116
120
110
68
4
-45
-62
-58
-38
1
48
82
94
89
76
58
37
17
-1
-13
-7
20
63
118
150
123
54
-21
-97
-176
-237
-266
-271
-251
-191
-96
0
71
134
186
189
145
90
41
-5
-42
-65
-77
-70
-42
-9
23
59
98
122
123
109
79
24
-49
-106
-133
-149
-167
-177
-163
-126
-65
9
64
89
98
101
101
100
102
104
92
62
35
35
59
86
97
77
30
-22
-75
-127
-163
-179
-184
-163
-99
-9
74
133
151
128
86
40
-9
-62
-111
-142
-143
-120
-64
34
132
176
166
125
73
22
-26
-76
-126
-164
-171
-143
-91
-22
39
64
63
57
52
49
51
59
71
79
78
56
17
-24
-58
-82
-94
-88
-48
21
89
112
88
41
-23
-106
-165
-177
-160
-131
-88
-30
30
78
117
155
179
180
161
121
70
26
-7
-37
-60
-70
-63
-51
-43
-34
-17
5
27
45
69
97
108
93
62
18
-31
-70
-94
-114
-136
-149
-143
-124
-93
-57
-33
-19
-1
30
68
97
124
167
206
204
145
56
-30
-119
-216
-280
-289
-260
-204
-125
-37
42
98
120
118
107
92
75
77
116
159
165
129
70
5
-45
-77
-101
-122
-144
-147
-115
-51
43
146
200
191
151
104
62
33
16
5
0
-6
-11
-17
-26
-45
-73
-95
-102
-100
-97
-95
-85
-55
-7
54
110
124
97
59
17
-25
-52
-65
-80
-102
-123
-126
-108
-82
-54
-28
-13
-6
3
22
51
86
132
179
195
162
106
53
15
-18
-58
-97
-129
-152
-156
-134
-95
-52
-3
48
79
80
77
89
104
97
72
49
25
-4
-20
-8
23
67
103
100
54
-1
-67
-146
-199
-204
-185
-143
-75
-9
31
58
82
103
107
95
84
95
119
130
127
121
89
19
-57
-117
-162
-194
-205
-191
-161
-127
-74
0
70
115
134
124
93
65
57
65
64
46
35
38
35
15
-18
-51
-76
-87
-77
-58
-52
-57
-62
-66
-69
-65
-55
-45
-39
-31
-16
6
24
34
40
43
46
53
60
66
78
100
121
124
109
84
50
4
-44
-76
-86
-81
-61
-26
5
26
34
23
-4
-36
-64
-84
-106
-127
-131
-116
-96
-59
14
107
182
213
197
145
83
31
-14
-74
-146
-193
-204
-189
-136
-46
32
74
90
93
86
71
51
29
10
4
14
29
40
59
95
122
118
91
62
50
52
53
42
-5
-95
-179
-216
-216
-201
-185
-167
-147
-122
-72
10
81
114
124
127
127
120
111
102
90
71
55
44
34
28
35
43
33
14
-6
-34
-65
-88
-98
-97
-87
-75
-67
-62
-50
-31
-20
-25
-40
-52
-49
-28
4
39
74
98
92
61
24
-4
-14
-8
-1
1
6
19
30
34
31
27
23
20
17
13
8
3
3
4
2
-7
-19
-27
-30
-32
-19
11
33
33
23
11
-9
-32
-48
-60
-75
-81
-62
-27
3
15
18
23
30
40
60
82
86
73
59
43
21
-1
-18
-30
-44
-64
-84
-92
-90
-80
-60
-33
-5
19
36
41
37
32
30
28
25
22
17
17
40
84
107
92
56
13
-30
-73
-107
-136
-162
-169
-145
-94
-20
56
97
94
76
61
54
49
45
43
42
39
34
28
23
21
21
18
9
-6
-23
-31
-31
-35
-45
-51
-52
-50
-46
-37
-24
-8
5
17
23
24
27
31
30
24
17
16
15
13
16
40
73
86
66
29
-18
-69
-103
-112
-111
-111
-109
-94
-64
-34
-10
14
43
70
84
78
55
29
13
0
-13
-14
0
15
21
33
58
71
58
36
23
22
19
11
0
-13
-24
-29
-26
-22
-17
-8
-2
-3
-6
-5
0
-2
-10
-18
-25
-28
-30
-34
-41
-45
-41
-31
-21
-9
11
37
48
43
32
19
3
-8
-9
-6
-6
-7
0
12
21
25
27
22
13
3
-5
-16
-26
-32
-34
-32
-29
-27
-25
-19
-1
27
53
68
71
67
57
39
16
-4
-24
-46
-62
-66
-63
-53
-36
-17
-1
7
14
21
28
33
39
47
49
42
27
13
-2
-17
-27
-31
-31
-27
-18
-10
-7
-5
-4
-5
-9
-13
-13
-12
-14
-16
-13
-5
4
12
17
22
24
23
21
20
20
24
32
31
23
15
12
7
0
-5
-10
-14
-16
-15
-17
-24
-32
-37
-37
-34
-30
-25
-20
-18
-15
-10
-2
8
20
28
31
32
31
27
22
15
8
-1
-8
-10
-9
-10
-19
-31
-36
-35
-30
-24
-19
-14
-9
-2
6
15
22
35
53
69
73
68
59
41
18
-1
-16
-28
-38
-42
-42
-35
-25
-11
0
2
0
-2
0
3
5
6
6
6
9
14
17
13
4
-5
-11
-14
-15
-16
-14
-9
-6
-8
-16
-27
-33
-29
-22
-15
-7
0
7
12
15
15
11
12
17
21
22
23
25
26
21
12
4
0
-4
-7
-9
-13
-16
-18
-17
-12
-8
-3
0
1
5
8
9
9
12
17
20
16
11
9
7
2
-2
-5
-8
-13
-17
-18
-21
-25
-26
-24
-19
-13
-9
-6
-3
0
3
10
17
21
22
23
23
21
18
15
10
1
-12
-23
-28
-27
-24
-23
-26
-25
-19
-15
-12
-7
0
7
11
14
14
10
9
14
24
30
28
25
16
6
0
0
2
6
10
11
7
0
-4
-6
-4
1
7
13
15
9
1
-6
-13
-19
-21
-19
-19
-19
-13
-7
-1
2
2
0
-1
-1
2
2
-7
-17
-18
-16
-15
-15
-12
-5
0
5
11
14
15
16
20
23
23
24
24
19
11
2
-5
-12
-16
-18
-23
-29
-32
-34
-30
-21
-12
-5
1
7
12
16
18
19
22
26
25
21
17
16
15
14
12
6
1
-2
-6
-9
-16
-27
-33
-32
-29
-25
-19
-12
-5
3
9
12
13
17
23
24
24
24
23
18
13
9
8
5
0
-7
-14
-23
-30
-33
-30
-25
-20
-16
-11
-5
1
9
12
13
16
23
28
26
21
14
4
-3
-2
0
-3
-8
-12
-15
-18
-23
-24
-19
-12
-7
-2
2
5
5
5
9
15
23
31
33
27
19
11
5
1
-5
-12
-18
-23
-27
-29
-34
-36
-31
-21
-12
-8
-5
0
6
13
21
27
26
24
24
24
19
14
14
14
12
6
2
0
-4
-10
-17
-23
-29
-32
-29
-22
-15
-10
-5
-2
-1
0
1
1
3
9
16
19
19
17
13
13
13
13
9
5
3
0
-10
-23
-29
-29
-26
-23
-19
-13
-7
1
12
19
20
20
23
27
25
21
21
20
13
3
-4
-8
-11
-14
-16
-18
-22
-24
-22
-21
-18
-13
-8
-2
3
8
12
14
16
21
22
19
18
18
14
8
6
5
4
0
-2
-4
-10
-22
-31
-30
-24
-18
-14
-11
-7
-1
5
13
20
28
35
36
29
19
15
19
24
28
30
26
13
-6
-29
-51
-67
-78
-83
-82
-78
-70
-58
-43
-24
-5
7
15
25
40
53
58
58
58
58
55
49
43
34
20
8
1
-3
-11
-20
-23
-21
-19
-18
-16
-14
-11
-8
-3
0
2
7
14
19
22
24
24
20
13
6
2
0
-2
-9
-20
-31
-37
-36
-32
-30
-27
-22
-15
-7
2
10
14
16
20
26
32
33
28
22
14
6
1
-2
-8
-16
-22
-25
-29
-34
-35
-30
-24
-19
-14
-6
0
6
12
15
20
28
36
41
37
28
16
7
0
-7
-16
-24
-29
-31
-31
-34
-36
-32
-26
-18
-8
1
10
17
23
32
35
33
33
35
33
29
24
19
9
-2
-12
-17
-17
-17
-20
-23
-25
-24
-18
-4
5
6
3
3
4
3
3
4
4
0
-6
-5
-3
-1
3
8
10
10
8
5
2
0
-1
-7
-18
-25
-24
-19
-14
-11
-7
-1
4
12
20
23
23
26
30
32
33
33
28
17
3
-8
-16
-20
-24
-28
-34
-39
-41
-40
-34
-28
-21
-12
-4
4
15
21
23
24
27
28
26
23
22
19
11
4
0
-3
-10
-14
-12
-11
-16
-20
-18
-13
-10
-8
-3
2
5
8
11
12
11
13
15
15
12
7
2
0
0
4
5
3
0
-4
-13
-24
-30
-31
-29
-26
-21
-13
-8
-5
-2
1
5
9
22
42
55
58
55
42
20
0
-14
-24
-34
-43
-49
-50
-49
-49
-45
-37
-27
-19
-7
9
28
48
67
83
93
91
76
53
25
-1
-22
-34
-43
-50
-57
-60
-59
-55
-51
-48
-41
-29
-17
-6
6
17
24
27
29
32
31
30
31
36
41
44
44
37
26
14
5
1
0
0
-1
-6
-14
-24
-30
-29
-24
-18
-11
-5
-1
0
0
0
2
5
8
9
7
5
0
-5
-10
-13
-18
-24
-28
-22
-16
-17
-23
-23
-18
-11
-6
-2
3
9
13
16
16
13
12
15
19
21
22
21
15
8
1
-3
-4
-3
-2
-3
-7
-12
-14
-13
-12
-10
-7
-5
-2
2
8
12
14
21
33
42
45
48
45
34
19
6
-2
-13
-26
-37
-45
-53
-62
-69
-69
-62
-54
-43
-29
-16
-5
3
13
25
38
50
59
62
58
52
46
41
39
43
47
42
31
15
-9
-32
-46
-52
-59
-70
-77
-76
-71
-64
-51
-36
-23
-10
4
20
29
30
30
32
35
33
29
24
19
17
17
17
13
6
1
-1
-1
0
1
3
6
11
17
21
26
30
31
26
17
7
-1
-9
-14
-15
-13
-12
-10
-9
-19
-40
-58
-61
-57
-50
-43
-36
-29
-24
-19
-13
-8
-2
8
21
29
32
33
36
39
39
36
32
29
28
27
22
14
8
8
12
13
11
10
10
8
7
7
3
-2
-5
-3
-1
-3
-3
2
8
10
0
-19
-39
-49
-50
-49
-51
-51
-44
-35
-31
-30
-25
-18
-11
-5
0
2
6
13
21
29
33
36
44
53
56
51
43
32
18
2
-10
-18
-20
-16
-10
-7
-6
-6
-5
-5
-5
-6
-9
-11
-10
-8
-7
-8
-9
-11
-15
-17
-18
-22
-27
-28
-22
-15
-13
-12
-5
5
13
22
34
46
55
64
71
71
62
53
51
51
47
40
33
26
14
-1
-13
-22
-29
-38
-52
-66
-76
-81
-82
-78
-72
-62
-52
-40
-27
-11
5
21
46
81
102
101
89
65
33
4
-14
-27
-42
-59
-72
-80
-85
-93
-99
-96
-86
-75
-63
-47
-25
-2
21
49
77
96
106
108
105
99
91
82
71
57
43
32
24
19
11
-2
-16
-24
-26
-29
-34
-36
-31
-25
-25
-26
-25
-24
-22
-19
-13
-8
-4
-6
-8
-3
4
9
8
2
-3
-7
-12
-20
-26
-29
-30
-28
-23
-17
-12
-7
-1
7
17
27
37
43
43
41
37
31
28
25
26
28
25
20
11
-6
-25
-36
-40
-41
-41
-37
-31
-26
-19
-10
-4
-3
-2
3
12
17
21
22
21
17
13
12
11
5
-2
-8
-11
-12
-10
-6
-2
0
1
0
-2
-5
-5
-2
0
1
8
16
22
24
17
6
-2
-8
-13
-18
-22
-22
-16
-10
-10
-16
-19
-17
-15
-14
-13
-12
-11
-10
-6
-1
8
21
32
40
42
38
32
27
25
25
25
22
16
11
2
-6
-13
-18
-24
-28
-25
-18
-9
-2
1
1
-1
-2
5
18
24
19
0
-26
-44
-50
-49
-44
-36
-31
-31
-33
-37
-40
-36
-24
-8
11
33
49
56
59
59
58
56
54
51
44
33
19
9
3
0
-1
-3
-6
-13
-18
-23
-28
-30
-27
-22
-17
-15
-15
-12
-6
0
7
13
20
24
26
27
25
17
5
-7
-18
-24
-29
-34
-39
-39
-37
-37
-40
-40
-35
-28
-25
-22
-14
-4
7
18
27
34
42
51
59
62
63
60
55
48
38
25
11
0
-6
-15
-27
-36
-40
-39
-40
-40
-38
-31
-25
-17
-5
9
23
35
48
59
60
47
29
11
-2
-11
-16
-21
-31
-43
-53
-60
-64
-64
-59
-51
-43
-34
-22
-9
2
12
20
32
52
73
85
87
81
71
65
57
44
25
2
-19
-34
-44
-57
-73
-81
-77
-70
-63
-58
-51
-42
-30
-15
0
12
23
36
49
57
57
53
49
41
27
14
7
1
-3
-11
-18
-24
-25
-19
-10
-3
2
9
19
31
40
48
53
56
63
65
58
45
21
-7
-30
-46
-57
-67
-80
-88
-89
-89
-90
-85
-72
-54
-38
-23
-6
11
27
42
53
56
57
59
59
56
47
33
22
14
5
-4
-11
-14
-16
-18
-24
-30
-34
-33
-28
-23
-18
-10
-1
7
15
19
21
24
29
37
43
43
38
32
29
24
19
14
8
2
-1
-5
-10
-15
-20
-24
-24
-22
-17
-11
-6
-2
1
1
1
2
5
5
0
-11
-17
-17
-18
-21
-23
-23
-19
-14
-13
-17
-20
-17
-9
-1
4
6
9
11
13
17
17
15
18
24
28
28
20
9
-2
-11
-17
-17
-16
-17
-17
-18
-19
-19
-13
-3
3
5
1
0
3
6
8
9
12
19
27
31
31
29
23
17
11
6
0
-8
-17
-20
-19
-18
-14
-2
11
14
6
0
1
4
3
-2
-13
-24
-30
-32
-33
-37
-43
-46
-45
-42
-41
-38
-28
-15
-1
11
18
22
27
39
60
78
82
77
65
50
37
25
15
8
5
2
0
-3
-12
-22
-30
-32
-30
-27
-23
-17
-8
-2
0
2
8
15
17
16
15
14
15
15
13
9
6
8
10
6
0
-6
-8
-10
-17
-26
-31
-33
-32
-30
-33
-39
-39
-34
-25
-19
-16
-12
-6
0
6
13
17
20
24
31
36
33
27
21
16
11
7
4
1
0
-2
-4
-6
-5
-4
-5
-10
-15
-18
-18
-15
-11
-8
-4
1
11
21
28
33
33
30
26
19
11
3
-4
-10
-17
-31
-51
-63
-62
-56
-50
-46
-40
-32
-24
-13
-1
6
13
24
42
64
79
83
81
74
61
45
31
19
7
-3
-12
-21
-30
-37
-42
-46
-47
-43
-35
-25
-16
-7
0
10
29
50
63
67
66
60
49
35
23
11
-3
-16
-26
-35
-49
-65
-73
-71
-67
-63
-55
-44
-33
-24
-16
-9
-3
3
12
24
34
42
47
47
44
39
33
26
18
12
5
-2
-9
-12
-12
-12
-13
-14
-12
-11
-9
-7
-3
0
11
29
41
42
34
26
19
12
5
0
-6
-15
-22
-26
-33
-42
-49
-50
-47
-43
-34
-21
-9
0
6
12
18
25
31
36
34
26
21
19
16
10
1
-6
-10
-12
-15
-21
-25
-22
-14
-6
0
4
12
21
29
35
36
35
34
36
35
29
21
10
-2
-18
-30
-33
-34
-34
-31
-27
-25
-26
-28
-24
-19
-17
-16
-17
-17
-16
-12
-8
-6
-4
0
7
17
27
38
44
39
27
12
-2
-11
-12
-11
-15
-24
-28
-20
-7
3
10
15
18
21
23
26
28
28
30
32
27
16
8
3
-2
-12
-20
-24
-29
-33
-36
-40
-42
-41
-33
-21
-10
0
13
30
43
51
51
44
34
27
24
24
21
17
16
18
20
19
8
-13
-33
-41
-46
-53
-59
-60
-58
-53
-44
-33
-24
-19
-19
-19
-14
-4
8
21
32
38
43
45
45
45
48
51
51
52
51
46
34
20
10
0
-16
-33
-47
-61
-77
-87
-88
-83
-76
-64
-45
-25
-14
-8
3
19
34
44
51
56
56
49
38
25
13
4
0
0
0
-2
-6
-9
-9
-6
-3
-2
0
7
16
25
28
26
21
16
12
7
1
-3
-4
-6
-13
-21
-22
-15
-9
-6
-3
3
11
16
15
10
4
1
2
4
1
-6
-12
-12
-14
-14
-12
-11
-12
-11
-6
2
14
28
37
37
30
21
8
-7
-22
-31
-36
-42
-46
-43
-35
-27
-22
-19
-11
-1
7
15
24
31
37
39
33
25
18
13
5
-8
-27
-42
-47
-48
-45
-40
-34
-25
-13
0
14
21
25
31
39
45
48
48
45
41
38
31
22
13
6
0
-3
-5
-2
1
2
2
4
7
10
12
11
4
-8
-23
-36
-45
-49
-50
-47
-40
-31
-24
-20
-22
-24
-20
-14
-11
-8
-4
0
3
7
10
9
12
23
40
59
69
65
52
39
24
7
-7
-18
-24
-27
-36
-47
-54
-56
-52
-46
-37
-25
-10
6
21
29
29
28
36
50
60
63
62
58
46
28
13
1
-14
-33
-47
-56
-64
-70
-70
-64
-56
-48
-36
-19
-1
12
22
30
36
41
47
51
49
42
36
34
34
31
21
10
3
0
-5
-13
-21
-23
-21
-17
-16
-14
-9
-3
4
15
24
28
28
28
29
27
21
13
1
-18
-36
-45
-46
-43
-42
-48
-58
-67
-70
-68
-63
-53
-41
-26
-9
7
26
39
47
56
65
71
72
66
52
33
17
5
-5
-14
-15
-9
-5
-8
-14
-18
-20
-24
-26
-20
-6
5
11
10
7
3
3
6
9
9
7
7
10
13
17
20
17
11
8
7
5
2
1
6
16
26
30
28
19
7
-3
-13
-22
-28
-32
-36
-40
-45
-49
-50
-47
-42
-37
-31
-25
-18
-9
-1
7
21
36
46
52
51
49
46
41
37
33
29
25
25
23
17
5
-4
-10
-16
-22
-27
-31
-34
-33
-30
-26
-24
-24
-21
-17
-16
-16
-12
-8
-5
-3
-3
-4
-3
3
15
24
29
34
40
40
33
23
14
2
-13
-26
-36
-44
-47
-45
-40
-32
-24
-17
-9
-1
7
14
20
27
38
48
56
58
59
61
58
46
26
3
-17
-28
-33
-38
-49
-61
-65
-60
-51
-39
-28
-19
-11
-4
0
4
10
20
31
36
30
23
21
17
11
5
2
0
-4
-3
-1
-3
-5
-3
-2
-3
-4
-1
2
3
4
6
8
10
13
17
18
14
8
3
-3
-12
-18
-21
-18
-8
2
4
0
-7
-13
-16
-17
-17
-16
-12
-6
0
4
7
10
15
22
25
25
23
22
17
11
5
4
2
-2
-8
-14
-24
-33
-39
-45
-51
-52
-45
-34
-18
2
21
28
28
29
33
35
32
26
23
23
23
29
37
37
31
25
16
5
-9
-25
-35
-39
-40
-37
-32
-27
-20
-11
-6
-4
-2
0
3
0
-7
-9
-6
-2
5
14
18
16
13
7
-4
-14
-15
-9
-4
-2
-1
2
5
6
7
9
8
9
14
20
21
18
17
18
13
4
0
-1
0
3
5
3
1
-1
-4
-11
-17
-16
-12
-11
-15
-19
-23
-27
-30
-29
-25
-22
-22
-24
-23
-17
-7
0
5
7
10
14
12
6
1
3
8
13
19
24
27
28
27
23
18
18
23
28
30
24
17
12
6
-1
-7
-9
-9
-6
-1
-1
-8
-14
-18
-25
-33
-37
-36
-33
-27
-20
-11
-3
6
17
23
22
16
13
13
12
10
6
1
-2
-5
-7
-10
-16
-22
-19
-12
-2
6
14
18
18
18
16
9
2
1
3
4
3
2
4
6
5
4
6
14
25
38
41
28
9
-7
-19
-31
-44
-50
-46
-39
-31
-21
-9
0
6
11
13
13
14
19
21
14
2
-6
-14
-18
-18
-17
-21
-26
-31
-33
-34
-31
-24
-16
-9
-4
0
8
20
36
49
55
53
50
48
45
39
33
25
15
6
0
-3
-12
-24
-29
-27
-22
-17
-11
-4
3
8
9
6
2
1
4
5
2
3
11
16
11
-1
-13
-21
-24
-28
-32
-38
-42
-41
-35
-27
-21
-15
-8
0
6
13
19
25
33
42
46
41
32
21
9
-1
-10
-16
-24
-33
-36
-32
-29
-29
-29
-26
-21
-18
-10
3
16
25
32
37
42
46
49
48
43
35
27
21
14
5
-4
-12
-18
-22
-27
-34
-37
-35
-30
-23
-16
-9
-3
1
5
9
12
12
12
16
21
24
28
30
26
17
8
0
-7
-15
-24
-29
-30
-31
-30
-26
-21
-17
-15
-11
-6
-3
-1
1
6
15
26
31
30
26
24
32
47
56
45
13
-21
-45
-60
-77
-100
-114
-110
-99
-83
-63
-38
-13
9
33
57
74
85
93
98
96
85
73
62
51
37
24
16
8
-1
-12
-22
-29
-33
-34
-32
-30
-28
-25
-20
-15
-11
-8
-7
-3
6
18
20
15
11
7
3
1
2
3
-4
-16
-23
-25
-30
-36
-37
-31
-26
-19
-10
-2
1
5
9
13
16
22
34
42
37
26
17
12
7
-6
-22
-31
-35
-35
-36
-38
-36
-30
-23
-17
-13
-8
0
6
12
18
22
24
33
47
51
46
42
39
37
30
21
12
5
0
-5
-10
-14
-22
-29
-31
-28
-25
-23
-21
-18
-14
-9
-6
-3
2
13
26
31
33
35
35
32
21
5
-9
-18
-23
-28
-38
-46
-48
-43
-32
-15
0
8
9
7
7
9
9
13
23
33
31
20
11
4
-6
-15
-19
-19
-18
-14
-11
-12
-15
-18
-16
-11
-7
-3
1
8
12
15
17
23
35
47
49
41
28
17
8
2
0
-1
-4
-10
-16
-22
-33
-46
-54
-51
-45
-41
-37
-30
-21
-12
-2
9
19
26
30
40
48
48
42
35
27
16
5
-1
-7
-11
-15
-20
-24
-26
-22
-15
-9
-5
0
4
10
17
24
24
23
27
31
28
20
12
6
2
-2
-7
-12
-19
-25
-27
-28
-30
-31
-29
-24
-19
-16
-12
-8
-3
3
9
17
26
33
37
32
14
-1
-10
-13
-19
-28
-34
-35
-33
-28
-25
-23
-17
-6
3
11
16
21
28
35
37
34
27
23
24
26
22
15
10
8
5
0
-2
-3
-3
0
5
8
6
1
0
2
2
-4
-13
-21
-29
-33
-32
-30
-30
-25
-14
-4
-1
0
3
9
15
17
17
16
15
13
8
0
-11
-16
-14
-10
-9
-7
-6
-3
2
7
12
15
21
29
33
30
25
21
18
12
2
-4
-10
-15
-18
-21
-25
-30
-32
-32
-30
-28
-26
-22
-15
-8
-3
-1
-1
4
18
31
31
23
17
15
14
12
9
6
3
2
4
1
-7
-17
-22
-22
-25
-28
-25
-17
-6
1
6
10
15
23
31
33
31
30
30
28
22
14
6
0
-1
-4
-13
-24
-29
-24
-16
-10
-8
-5
-3
0
1
3
3
4
10
19
21
17
15
15
11
2
-6
-15
-23
-31
-36
-40
-44
-46
-45
-40
-34
-29
-18
-4
8
17
25
29
33
41
49
52
50
49
46
39
28
15
3
-7
-13
-15
-21
-32
-44
-46
-39
-33
-28
-22
-16
-9
-2
3
7
10
16
23
26
25
23
23
22
18
12
5
-2
-7
-7
-7
-16
-26
-28
-24
-21
-20
-19
-14
-6
1
7
10
16
30
45
50
45
37
30
23
15
6
-5
-17
-23
-22
-24
-35
-48
-51
-45
-39
-37
-35
-31
-23
-12
-1
4
9
18
31
39
39
36
35
33
28
21
13
6
1
-1
-3
-9
-18
-17
-8
-3
-5
-9
-9
-7
-6
-6
-6
-3
6
20
28
28
23
22
23
18
10
2
-4
-12
-17
-20
-26
-31
-33
-30
-29
-31
-32
-29
-22
-12
-5
0
5
14
27
37
38
36
35
35
37
40
37
26
14
2
-9
-23
-34
-39
-40
-42
-43
-40
-34
-25
-15
-4
4
9
19
33
41
38
35
33
33
30
21
11
2
-5
-9
-12
-18
-26
-33
-32
-27
-23
-20
-18
-14
-11
-7
-4
0
8
21
32
34
30
27
25
20
13
2
-6
-12
-15
-18
-26
-34
-35
-32
-30
-30
-28
-20
-10
-2
6
11
14
18
28
39
43
41
39
37
32
25
17
8
-1
-9
-14
-19
-27
-34
-37
-36
-34
-33
-30
-24
-16
-7
-1
2
11
24
35
37
32
28
29
29
28
25
21
16
12
10
0
-19
-36
-42
-42
-45
-50
-50
-43
-34
-24
-14
-5
5
19
32
38
