emg_value
0
-2
-7
-13
-17
-18
-19
-18
-14
-9
-2
5
9
7
4
6
12
16
21
28
39
51
60
67
77
90
100
101
94
82
68
53
39
25
9
-11
-33
-49
-61
-79
-103
-118
-118
-113
-106
-97
-87
-80
-71
-58
-46
-36
-25
-10
7
20
29
38
45
52
58
65
71
66
54
45
39
31
19
10
6
7
10
13
9
-1
-12
-17
-16
-4
16
34
41
33
13
-5
-18
-28
-42
-59
-73
-79
-79
-79
-77
-69
-56
-43
-32
-20
-8
1
9
18
31
44
54
67
83
92
93
88
84
81
77
71
60
44
28
14
1
-7
-9
-2
5
3
-7
-19
-30
-44
-54
-57
-54
-45
-29
-15
-9
-12
-17
-18
-20
-26
-35
-47
-61
-70
-70
-66
-65
-62
-54
-43
-32
-18
-3
8
17
32
58
91
117
131
134
127
108
83
61
41
20
5
-5
-20
-35
-48
-56
-58
-59
-60
-56
-49
-41
-33
-28
-26
-23
-20
-19
-16
-7
0
4
7
5
-1
-12
-21
-27
-35
-44
-43
-34
-25
-15
-1
15
32
50
73
95
107
107
102
94
83
76
74
72
61
40
19
6
-1
-12
-29
-43
-53
-65
-80
-97
-106
-108
-104
-95
-81
-65
-48
-29
-6
22
49
65
74
83
93
93
82
64
42
17
-5
-20
-31
-41
-47
-47
-48
-55
-64
-63
-51
-36
-24
-16
-12
-6
3
15
27
40
55
71
82
84
75
55
32
7
-21
-45
-57
-63
-68
-78
-88
-90
-84
-70
-51
-34
-24
-21
-16
-4
10
22
30
39
54
64
67
65
63
60
50
38
29
19
7
-1
-4
-3
8
32
54
66
69
66
64
65
65
61
50
30
8
-5
-18
-35
-56
-72
-79
-87
-101
-115
-120
-113
-95
-73
-52
-36
-23
-11
-5
-5
-5
0
9
19
31
42
47
49
53
62
66
58
42
19
-4
-22
-32
-40
-45
-43
-37
-31
-21
-5
10
21
25
21
14
11
13
15
11
4
3
7
7
0
-8
-8
0
10
10
0
-11
-18
-20
-23
-31
-36
-31
-20
-7
4
13
20
27
33
36
34
32
32
37
48
57
63
69
71
64
52
42
33
21
5
-12
-33
-50
-56
-47
-33
-21
-13
-11
-17
-25
-32
-42
-53
-61
-62
-63
-66
-71
-77
-79
-77
-76
-77
-78
-74
-64
-52
-41
-26
-6
14
30
44
58
71
84
97
109
111
108
105
107
109
103
89
76
67
63
58
43
21
0
-20
-42
-60
-70
-75
-74
-73
-70
-66
-57
-48
-38
-23
-7
3
10
15
16
16
15
15
17
20
20
25
38
48
47
37
16
-7
-22
-28
-29
-22
-12
-10
-16
-17
-6
6
6
-7
-22
-40
-65
-84
-89
-87
-82
-73
-65
-57
-51
-44
-40
-36
-26
-9
8
20
28
36
48
62
80
95
101
97
94
99
103
102
97
89
81
72
57
38
12
-19
-45
-60
-74
-88
-96
-92
-79
-67
-57
-47
-36
-26
-18
-11
0
21
47
66
73
68
63
63
64
64
66
62
48
27
-4
-46
-78
-89
-94
-101
-106
-102
-93
-85
-74
-53
-31
-18
-10
-2
0
-1
-3
-7
-9
-6
-2
-1
-5
-9
-5
1
5
6
9
14
22
32
47
64
79
90
99
103
97
85
70
52
33
11
-7
-21
-33
-46
-60
-72
-80
-83
-86
-93
-98
-91
-76
-58
-41
-25
-8
9
36
73
102
114
120
125
129
124
112
98
80
53
25
2
-14
-32
-50
-64
-73
-81
-89
-94
-97
-96
-89
-73
-48
-26
-13
-7
-2
9
26
40
46
44
43
51
66
74
68
52
32
14
-4
-34
-70
-91
-95
-93
-91
-86
-79
-72
-66
-60
-53
-46
-36
-20
-3
15
43
82
123
158
176
169
144
115
83
47
12
-13
-31
-49
-67
-80
-82
-77
-73
-72
-70
-60
-45
-16
25
55
64
63
60
57
52
46
38
25
8
-5
-12
-20
-32
-40
-40
-38
-43
-52
-56
-51
-40
-27
-14
-6
2
14
24
30
29
29
32
41
52
57
52
37
21
8
-3
-11
-15
-16
-18
-20
-18
-13
-2
15
40
67
91
102
97
76
46
14
-17
-48
-70
-84
-94
-107
-121
-127
-125
-124
-125
-121
-104
-80
-54
-28
0
22
39
54
73
94
107
108
100
86
66
45
29
17
5
-9
-21
-24
-16
-2
8
11
15
24
31
29
25
25
25
25
21
15
9
4
2
1
0
-3
-8
-14
-21
-29
-35
-39
-44
-44
-39
-32
-28
-21
-9
2
10
16
24
32
36
34
30
25
24
33
51
65
69
69
70
71
64
40
4
-29
-51
-65
-84
-112
-135
-143
-145
-148
-146
-133
-115
-91
-58
-23
1
23
53
90
114
120
119
119
122
119
105
83
51
13
-18
-40
-58
-73
-78
-75
-66
-58
-49
-38
-27
-15
-1
16
42
73
101
122
126
112
86
58
32
4
-27
-54
-65
-67
-73
-86
-92
-85
-71
-59
-50
-35
-17
-1
15
35
49
56
63
71
78
80
77
70
63
53
40
26
12
5
9
14
9
-4
-24
-48
-68
-80
-88
-93
-98
-99
-95
-91
-86
-77
-65
-52
-38
-25
-13
0
14
31
46
59
67
73
74
68
60
53
44
34
28
25
23
20
22
31
39
42
44
46
39
25
13
5
-4
-19
-37
-52
-67
-80
-89
-92
-91
-87
-77
-63
-49
-33
-11
20
60
89
97
90
78
67
57
48
35
15
-8
-27
-36
-42
-49
-60
-66
-58
-44
-30
-19
-7
8
19
24
27
29
31
33
42
60
77
87
89
85
74
61
48
28
0
-36
-64
-79
-82
-85
-93
-104
-108
-102
-89
-74
-57
-38
-19
0
20
35
41
44
49
57
60
55
48
41
34
27
20
16
17
24
29
25
14
0
-14
-23
-26
-31
-45
-59
-63
-60
-54
-48
-39
-25
-9
1
7
14
24
38
53
55
42
25
11
5
3
1
2
7
12
9
-3
-13
-11
-6
-10
-22
-33
-37
-32
-20
-6
1
4
8
15
24
26
21
12
1
-9
-15
-15
-13
-4
13
26
32
34
36
36
34
30
24
20
22
26
28
23
15
6
0
-6
-13
-19
-22
-25
-25
-28
-37
-49
-53
-51
-46
-40
-37
-36
-33
-30
-23
-7
14
37
61
82
86
74
55
37
19
2
-14
-28
-43
-59
-71
-73
-68
-59
-53
-48
-39
-22
1
22
37
47
55
60
66
69
70
68
62
55
48
37
21
5
-9
-18
-22
-24
-34
-53
-63
-59
-51
-42
-34
-25
-15
-4
2
5
4
5
12
18
18
15
14
16
15
8
0
-6
-8
-11
-14
-17
-20
-20
-18
-16
-14
-9
-4
1
12
27
41
48
50
50
47
38
27
18
11
0
-15
-29
-41
-52
-55
-52
-47
-43
-37
-28
-18
-13
-11
-7
0
7
15
24
32
38
44
45
41
34
29
26
26
25
17
9
5
5
2
-5
-10
-6
0
-4
-22
-41
-56
-67
-76
-80
-77
-68
-55
-35
-10
8
17
24
35
47
50
42
32
30
36
40
36
30
29
32
33
33
29
21
8
-3
-10
-21
-38
-52
-56
-55
-52
-45
-29
-3
28
57
70
62
45
26
4
-24
-45
-52
-50
-45
-40
-33
-21
-7
7
23
38
48
53
60
64
56
38
21
13
12
11
6
-3
-15
-28
-40
-50
-58
-63
-66
-67
-65
-57
-42
-20
0
17
26
30
35
44
53
58
61
62
57
48
39
29
23
22
21
19
9
-12
-31
-41
-50
-65
-84
-95
-93
-82
-60
-36
-23
-14
0
15
31
44
49
48
41
33
24
18
15
16
18
13
4
-3
-5
-3
0
5
9
11
12
16
20
21
18
18
18
12
2
-4
-12
-21
-26
-29
-33
-38
-38
-33
-29
-25
-18
-9
0
2
2
6
11
12
10
6
1
0
6
11
9
7
10
17
21
19
12
9
10
17
24
26
22
18
18
18
11
-1
-17
-33
-49
-62
-72
-77
-70
-48
-19
4
21
32
33
26
13
1
-5
-3
4
12
12
5
-2
-2
2
5
4
1
0
0
4
12
22
33
41
45
45
41
34
28
23
19
13
0
-14
-22
-26
-31
-42
-49
-47
-43
-43
-44
-40
-32
-21
-7
0
1
3
12
27
38
40
38
33
23
13
6
3
2
2
5
6
1
-9
-21
-27
-28
-26
-23
-16
-9
-3
1
8
19
29
34
32
22
10
3
0
0
0
0
0
0
-3
-13
-26
-32
-31
-28
-26
-23
-18
-11
-6
-1
9
20
26
30
34
33
28
23
20
15
9
2
0
0
-1
-5
-12
-24
-37
-47
-56
-63
-65
-62
-52
-40
-24
-4
12
30
53
71
75
66
51
37
30
25
16
2
-11
-14
-7
0
0
-3
-4
-4
-5
-10
-13
-13
-13
-14
-15
-14
-9
1
14
27
37
40
36
28
17
4
-8
-18
-23
-26
-32
-41
-48
-50
-46
-38
-30
-23
-14
-4
5
13
17
20
25
29
28
23
16
11
8
8
11
14
17
17
13
4
-6
-17
-25
-27
-26
-26
-24
-19
-13
-5
5
15
25
38
49
54
52
45
38
30
22
13
2
-6
-8
-6
-12
-27
-41
-42
-35
-28
-23
-19
-14
-10
-4
0
0
-2
0
6
12
11
9
10
12
11
7
1
-4
-7
-6
-5
-8
-14
-16
-11
0
8
13
14
10
1
-10
-20
-25
-19
-2
19
38
49
50
45
37
29
15
-5
-24
-36
-46
-58
-70
-71
-61
-46
-30
-10
5
14
18
23
29
32
35
42
46
42
35
31
28
23
14
2
-10
-19
-23
-25
-32
-39
-39
-32
-24
-20
-17
-12
-6
0
7
11
13
15
22
29
29
28
27
27
24
20
15
9
1
-5
-11
-15
-22
-29
-32
-32
-29
-23
-17
-12
-9
0
11
24
34
42
47
44
35
27
22
11
-9
-35
-55
-62
-55
-38
-20
-11
-8
-4
2
2
-2
-2
4
12
16
17
18
22
27
29
20
9
3
-1
-4
-2
1
5
4
-4
-14
-26
-38
-46
-48
-45
-40
-34
-24
-10
3
15
27
32
33
1
17
28
28
21
13
9
11
14
15
10
5
2
0
-5
-15
-23
-31
-42
-54
-66
-77
-84
-83
-74
-58
-39
-20
1
25
46
59
66
69
72
76
83
90
91
82
66
48
30
13
-5
-21
-30
-38
-53
-74
-88
-87
-79
-71
-60
-48
-39
-32
-24
-14
-5
3
12
18
21
22
23
25
27
26
21
16
14
12
7
0
-3
0
9
21
30
34
36
36
36
35
32
26
21
16
13
9
0
-9
-18
-25
-30
-33
-35
-34
-27
-17
-11
-8
-8
-9
-7
2
22
47
58
51
39
24
8
0
0
3
0
-8
-13
-13
-15
-21
-30
-44
-61
-76
-86
-96
-100
-94
-77
-57
-33
-12
3
12
18
24
26
25
24
28
36
43
45
45
46
50
54
59
63
64
65
61
51
38
21
4
-5
-12
-17
-15
-7
0
3
1
-4
-12
-18
-22
-26
-33
-41
-46
-46
-42
-31
-16
-5
2
7
0
-17
-33
-38
-36
-31
-25
-13
2
12
19
26
29
30
33
37
38
35
30
22
15
9
8
9
6
0
-10
-19
-27
-34
-34
-26
-20
-17
-10
0
7
13
19
24
31
41
51
57
56
50
42
33
23
13
2
-6
-13
-19
-31
-48
-61
-63
-62
-62
-61
-56
-47
-33
-19
-11
-11
-13
-8
2
14
19
19
17
15
11
5
-2
-11
-17
-19
-18
-14
-10
1
25
51
66
67
56
38
25
17
6
-3
-4
0
1
0
0
0
2
3
5
2
-10
-26
-36
-42
-48
-51
-47
-39
-31
-24
-15
-1
10
18
22
26
33
44
56
58
48
36
28
25
22
16
11
6
2
3
4
-3
-12
-12
-2
7
8
3
-2
-8
-12
-12
-11
-10
-4
5
9
6
0
-4
-7
-9
-14
-19
-22
-23
-23
-24
-27
-33
-40
-45
-46
-44
-37
-27
-15
-2
11
24
37
49
57
60
62
70
74
68
55
33
5
-18
-31
-38
-48
-65
-78
-77
-67
-54
-40
-30
-23
-18
-12
-4
0
2
13
35
58
70
73
71
66
56
45
36
25
14
4
-3
-14
-25
-33
-38
-40
-39
-33
-25
-13
0
12
23
34
46
54
54
49
43
32
15
-5
-26
-48
-69
-81
-82
-81
-85
-91
-90
-82
-75
-69
-58
-44
-27
-11
4
20
38
59
82
104
125
133
128
115
100
88
79
65
46
21
-6
-29
-46
-56
-62
-68
-72
-71
-65
-51
-31
-16
-13
-18
-17
-7
2
8
11
14
15
11
7
1
-11
-25
-34
-39
-46
-52
-49
-39
-33
-33
-32
-27
-20
-12
-6
0
10
27
42
49
46
40
39
41
40
39
41
43
44
46
47
43
38
33
28
18
8
2
0
0
0
2
4
5
6
6
2
-5
-17
-29
-36
-37
-31
-18
-1
12
18
14
0
-23
-51
-69
-73
-70
-56
-28
7
41
62
64
49
31
21
16
10
-3
-18
-26
-26
-29
-42
-56
-64
-65
-67
-71
-71
-65
-54
-39
-21
-4
7
20
36
54
64
66
68
73
72
60
48
39
32
29
32
39
45
46
40
27
13
4
1
6
10
12
9
0
-9
-13
-11
-7
-5
-2
0
0
-5
-14
-24
-29
-32
-34
-37
-40
-44
-42
-38
-35
-35
-29
-15
-3
2
3
5
9
10
10
13
20
31
46
51
38
18
3
-5
-14
-25
-34
-40
-46
-53
-60
-63
-65
-66
-64
-56
-41
-26
-13
-3
8
19
26
30
43
68
90
98
95
84
70
57
48
48
58
69
64
44
22
-1
-25
-37
-35
-30
-25
-17
-13
-16
-22
-30
-39
-42
-36
-28
-28
-35
-41
-42
-44
-46
-46
-40
-31
-25
-23
-25
-25
-19
-9
3
12
19
27
34
44
67
94
117
139
155
149
119
81
48
20
-4
-20
-31
-45
-65
-88
-105
-115
-121
-114
-85
-52
-34
-29
-33
-37
-35
-27
-19
-11
-5
0
4
9
10
9
9
12
23
46
73
90
96
93
79
57
33
12
-7
-28
-43
-49
-54
-66
-76
-76
-71
-65
-58
-52
-51
-51
-46
-32
-11
4
13
21
32
48
61
65
64
59
53
50
49
49
50
50
51
52
54
56
58
59
60
60
55
48
37
22
7
-11
-36
-59
-71
-75
-84
-101
-112
-110
-101
-94
-85
-69
-45
-18
13
48
69
74
79
86
85
68
40
13
-14
-48
-74
-89
-100
-111
-122
-130
-128
-114
-84
-40
-3
20
40
57
65
67
66
64
60
60
61
58
51
46
44
42
35
27
24
28
32
34
28
10
-9
-20
-20
-18
-18
-19
-19
-14
-3
8
18
24
32
45
57
57
40
19
0
-13
-19
-21
-26
-34
-44
-55
-65
-71
-74
-74
-71
-64
-51
-36
-19
3
30
53
71
89
104
106
97
84
69
47
23
3
-13
-33
-54
-69
-77
-84
-86
-86
-82
-76
-69
-56
-39
-23
-6
10
31
58
80
92
90
81
68
56
43
27
8
-14
-33
-42
-45
-47
-45
-40
-31
-18
-7
-4
-6
-7
-5
-2
1
3
6
16
38
60
69
67
62
49
26
6
-6
-17
-28
-36
-39
-43
-49
-54
-57
-56
-51
-45
-37
-25
-6
12
26
37
48
54
55
50
39
23
7
-5
-14
-20
-27
-34
-33
-26
-23
-26
-27
-20
-12
-5
2
6
9
15
25
39
48
54
59
61
56
46
37
31
28
25
20
6
-12
-28
-42
-56
-67
-73
-75
-73
-68
-59
-49
-42
-37
-28
-15
-2
15
36
51
56
54
51
49
41
30
21
10
0
-5
-10
-19
-29
-33
-29
-20
-13
-6
1
8
14
21
27
32
39
46
48
39
24
15
12
10
7
3
-1
-7
-10
-12
-17
-20
-22
-28
-35
-40
-40
-34
-22
-9
-3
-10
-19
-20
-13
-6
-1
0
0
-1
-6
-9
-8
-8
-13
-18
-21
-19
-13
-3
10
20
25
31
39
47
53
53
46
32
20
13
10
6
7
14
20
20
15
2
-14
-28
-34
-38
-46
-59
-65
-60
-51
-42
-33
-25
-18
-9
6
23
38
49
62
79
90
90
85
78
67
50
30
13
-4
-23
-37
-45
-48
-42
-31
-28
-39
-49
-50
-45
-38
-33
-31
-31
-29
-22
-9
2
12
13
4
-10
-22
-24
-9
17
43
50
34
-2
-34
-48
-51
-43
-18
16
42
50
42
21
3
-3
-2
-4
-9
-18
-22
-21
-23
-29
-35
-40
-42
-32
-13
5
19
29
37
46
53
57
59
60
60
59
59
58
62
69
70
62
51
38
25
13
2
-8
-23
-45
-63
-72
-75
-79
-80
-74
-61
-50
-40
-29
-21
-16
-11
-8
-1
11
29
41
40
33
24
18
16
12
4
-4
-13
-19
-25
-37
-47
-48
-45
-41
-39
-36
-31
-25
-15
-1
11
18
23
31
44
49
44
36
28
19
13
11
11
10
10
9
5
0
-7
-12
-12
-6
-2
-1
0
3
9
16
18
13
6
2
-3
-10
-19
-27
-32
-31
-27
-22
-16
-8
0
3
2
2
8
14
23
37
49
56
59
55
36
10
-10
-23
-37
-55
-72
-77
-69
-53
-38
-28
-22
-18
-6
18
39
45
43
36
32
33
39
43
35
24
30
57
80
76
53
26
0
-26
-53
-74
-83
-86
-80
-64
-50
-46
-36
-5
36
60
55
32
-3
-44
-76
-96
-107
-112
-108
-90
-57
-17
22
52
70
80
90
98
100
92
81
80
93
112
111
86
57
33
12
-5
-19
-30
-41
-49
-48
-35
-20
-11
-10
-14
-20
-28
-36
-42
-43
-38
-33
-34
-46
-60
-64
-62
-58
-51
-37
-16
8
29
36
32
21
11
11
23
38
47
48
40
27
18
15
16
16
12
7
2
0
-3
-12
-24
-33
-35
-32
-24
-7
15
36
52
62
64
60
52
41
23
0
-23
-44
-64
-80
-87
-83
-69
-48
-21
5
22
24
16
6
0
-5
-7
-10
-11
-7
0
17
44
67
75
70
62
51
38
24
9
-6
-26
-45
-61
-70
-68
-55
-32
-2
35
75
99
92
68
40
-4
-69
-131
-172
-196
-202
-185
-144
-88
-26
32
70
74
59
50
61
87
115
130
126
103
75
61
66
77
74
51
22
3
-2
-5
-11
-14
-19
-35
-58
-73
-70
-63
-61
-43
12
68
96
98
78
39
-2
-36
-71
-110
-136
-142
-137
-126
-109
-83
-53
-24
8
43
70
83
90
99
105
100
90
77
63
51
41
30
21
32
57
69
62
47
22
-14
-48
-68
-84
-99
-109
-110
-104
-92
-73
-48
-25
-11
-3
5
11
9
6
8
4
-6
-12
-8
4
16
21
22
28
38
51
62
63
58
57
71
96
107
98
74
26
-44
-109
-157
-194
-223
-235
-221
-187
-139
-78
-12
35
60
78
102
135
179
227
256
252
218
166
102
20
-75
-150
-184
-195
-202
-207
-190
-142
-77
-18
18
35
43
51
60
70
76
79
88
107
136
155
158
149
124
79
20
-35
-71
-103
-148
-183
-190
-176
-148
-114
-82
-57
-34
-9
20
44
56
62
67
70
70
68
61
47
30
19
21
36
59
77
73
49
15
-32
-82
-111
-116
-111
-114
-132
-145
-134
-101
-56
-7
28
42
50
64
87
108
123
131
138
146
147
133
105
63
20
-22
-63
-97
-123
-143
-157
-170
-181
-185
-179
-162
-139
-95
-23
52
106
138
159
176
180
170
152
129
98
66
40
18
-4
-32
-55
-66
-74
-76
-58
-24
8
27
28
12
-6
-14
-9
9
41
66
70
57
38
21
11
7
-6
-36
-73
-91
-83
-65
-46
-30
-26
-40
-68
-103
-130
-136
-122
-100
-75
-44
-13
19
52
90
128
145
141
126
108
89
68
50
34
26
35
53
65
65
48
14
-20
-46
-71
-103
-140
-161
-151
-113
-57
3
58
94
101
88
71
58
47
35
18
-4
-30
-48
-62
-77
-78
-55
-24
-5
-5
-17
-27
-28
-15
8
27
36
41
53
71
77
68
55
40
24
15
15
14
0
-28
-53
-70
-84
-93
-94
-87
-82
-81
-69
-40
-5
24
49
69
81
87
90
84
69
55
46
40
32
24
19
15
9
1
-9
-25
-40
-54
-67
-80
-90
-87
-71
-53
-23
20
48
48
37
33
37
40
40
41
40
30
17
11
16
34
57
67
57
29
-9
-57
-97
-119
-135
-151
-157
-141
-104
-62
-20
25
62
77
77
77
82
82
73
62
48
34
25
25
30
31
21
7
-3
-15
-30
-42
-45
-42
-39
-30
-12
8
21
27
32
34
30
24
19
11
5
3
0
-3
-9
-14
-17
-16
-8
-3
-8
-15
-15
-12
-10
-11
-10
-10
-12
-15
-13
-10
-11
-16
-15
-1
15
22
19
9
0
-1
6
8
0
-10
-17
-17
-14
-9
-1
6
15
22
22
16
13
14
17
18
14
6
1
-2
-5
-11
-19
-22
-20
-17
-20
-23
-19
-7
11
32
48
59
63
56
35
6
-25
-53
-75
-91
-97
-87
-60
-23
8
19
19
19
20
24
27
29
30
30
28
21
11
2
-3
-3
0
4
8
9
9
12
16
18
18
22
29
34
32
22
4
-13
-24
-30
-38
-51
-60
-61
-57
-52
-43
-27
-11
2
14
21
20
18
22
30
39
46
47
49
50
41
27
14
1
-10
-20
-32
-42
-47
-44
-35
-25
-19
-13
-6
-2
1
5
11
16
18
20
23
23
22
20
17
13
4
-9
-19
-21
-20
-23
-27
-27
-21
-14
-7
-1
3
6
9
12
9
1
-7
-10
-7
-5
-5
-2
2
7
10
8
4
-2
-5
-7
-9
-12
-15
-19
-18
-15
-11
-8
-5
2
17
31
41
49
58
60
48
30
15
9
7
6
2
-11
-39
-62
-68
-65
-58
-51
-41
-28
-15
-6
0
3
8
21
36
43
44
44
47
47
37
21
7
-2
-14
-25
-30
-25
-13
0
4
0
-5
-8
-9
-12
-12
-10
-7
-1
7
16
18
17
17
21
23
17
11
12
13
8
3
0
-8
-20
-30
-38
-45
-48
-46
-41
-35
-28
-15
2
16
24
28
29
32
32
29
23
19
17
15
12
7
0
-7
-12
-10
-3
-1
-5
-9
-13
-17
-22
-26
-23
-14
-7
-7
-4
2
9
16
24
31
30
24
21
19
16
12
9
8
6
-2
-13
-24
-37
-51
-65
-70
-66
-53
-34
-9
14
31
40
44
50
54
54
52
50
48
43
36
29
22
11
-1
-11
-16
-24
-39
-49
-48
-41
-33
-25
-20
-16
-10
-4
-1
1
8
19
28
31
24
19
18
16
6
-6
-17
-23
-27
-36
-45
-47
-41
-27
-7
9
21
29
29
21
13
9
6
6
9
9
3
-2
-8
-13
-18
-20
-17
-12
-6
0
2
-1
-9
-14
-9
0
10
22
32
35
32
28
26
25
24
23
16
3
-8
-11
-8
-5
2
9
12
12
6
-8
-26
-38
-41
-41
-41
-38
-30
-19
-11
-2
6
13
22
34
48
51
42
33
29
29
26
19
10
-3
-22
-41
-54
-63
-70
-73
-70
-63
-54
-43
-28
-13
1
16
34
52
65
73
75
68
54
39
28
19
7
-5
-12
-11
-9
-11
-12
-8
3
15
16
6
-3
-11
-17
-19
-17
-16
-17
-13
-4
5
9
12
16
17
11
2
-1
-4
-6
-1
2
0
-7
-13
-14
-14
-13
-11
-9
-8
-6
-1
3
8
19
32
38
36
27
20
17
16
10
-2
-18
-30
-34
-37
-47
-59
-63
-55
-43
-32
-20
-9
-2
2
10
20
28
35
42
49
49
42
34
28
19
9
1
-1
-2
-2
-4
-9
-18
-24
-26
-25
-21
-12
-1
9
17
21
23
21
21
26
29
26
20
11
0
-12
-23
-30
-38
-49
-54
-50
-47
-49
-51
-48
-42
-32
-19
-7
3
13
27
43
54
61
66
68
64
57
52
51
49
42
30
18
5
-7
-23
-41
-55
-63
-71
-82
-90
-91
-83
-67
-46
-25
-9
2
17
37
51
54
51
46
41
37
33
33
32
30
26
16
3
-8
-16
-19
-19
-20
-21
-23
-19
-10
-4
-3
-1
4
16
27
29
27
23
20
17
11
3
-3
-11
-17
-21
-29
-36
-36
-30
-22
-14
-7
0
4
4
3
2
5
11
23
35
40
38
37
37
29
15
4
-3
-11
-18
-26
-34
-41
-48
-52
-50
-47
-43
-34
-22
-11
-2
7
18
29
39
46
48
45
39
33
29
25
23
20
14
9
4
-2
-12
-18
-19
-18
-20
-22
-21
-16
-10
-3
2
3
3
4
3
0
-4
-3
1
4
8
15
21
18
8
-6
-20
-27
-30
-33
-34
-31
-24
-14
-2
11
21
25
23
19
16
17
19
18
17
12
4
-5
-14
-25
-38
-45
-44
-47
-53
-57
-53
-43
-31
-18
-2
9
15
22
33
42
51
60
66
65
60
57
55
50
40
26
11
0
-8
-15
-25
-35
-38
-38
-38
-39
-39
-33
-25
-17
-7
5
16
25
38
51
53
45
35
23
10
-2
-10
-13
-16
-18
-18
-20
-26
-30
-26
-18
-13
-13
-13
-10
-8
-6
-5
-6
-10
-9
-3
0
0
-2
-3
-1
0
-1
-3
-4
-3
0
0
-3
-7
-8
-5
-1
2
11
23
31
34
34
31
27
24
24
26
30
37
44
41
28
17
8
-7
-28
-51
-70
-80
-82
-77
-66
-55
-46
-36
-28
-23
-19
-15
-11
-1
16
38
52
58
59
55
47
37
27
15
0
-8
-9
-8
-10
-16
-17
-14
-11
-9
-7
-4
-2
0
7
17
28
39
48
52
52
50
49
43
28
8
-8
-19
-24
-24
-24
-28
-35
-42
-46
-50
-52
-50
-45
-37
-26
-14
-2
8
21
36
45
43
35
26
18
13
12
13
10
4
0
-3
-10
-17
-19
-14
-8
-2
1
3
2
2
3
1
-1
0
6
14
18
21
24
24
21
18
14
8
3
0
-8
-22
-34
-40
-42
-48
-57
-59
-52
-42
-30
-10
12
29
38
42
41
32
20
9
0
-3
-5
-7
-15
-29
-44
-53
-58
-62
-61
-51
-38
-23
-10
4
20
36
51
66
81
98
113
120
113
91
62
37
18
0
-17
-30
-36
-39
-44
-56
-67
-70
-67
-63
-62
-61
-56
-46
-32
-13
2
15
28
42
53
53
47
39
33
29
27
25
23
21
20
15
6
1
9
25
32
25
14
2
-10
-20
-26
-29
-36
-49
-57
-60
-62
-64
-64
-60
-53
-46
-39
-33
-21
4
37
66
83
82
71
57
45
36
28
21
12
1
-10
-17
-19
-18
-20
-28
-38
-41
-39
-38
-40
-38
-29
-17
-2
10
13
11
13
18
24
27
29
32
34
39
44
46
45
46
48
47
43
38
36
34
28
21
15
11
11
13
14
8
-4
-18
-28
-35
-44
-55
-65
-69
-67
-61
-59
-66
-72
-67
-58
-51
-48
-44
-41
-38
-36
-30
-23
-14
-4
10
27
41
55
67
75
76
73
71
69
65
62
57
47
39
37
36
28
15
0
-14
-26
-32
-31
-26
-25
-27
-24
-19
-18
-20
-16
-6
5
15
21
20
15
10
4
-4
-13
-20
-24
-28
-34
-42
-46
-45
-40
-37
-38
-40
-37
-27
-15
-3
8
17
22
24
28
34
39
40
37
33
29
27
26
26
20
12
5
-1
-9
-15
-14
-8
-1
7
15
18
15
10
5
1
-1
-1
0
-1
-6
-7
-4
-5
-10
-9
-4
-3
-7
-14
-20
-24
-27
-28
-27
-22
-14
-4
2
0
-7
-12
-13
-10
-5
3
10
13
15
18
21
25
33
44
50
49
41
35
31
29
31
39
49
55
50
32
4
-20
-33
-44
-59
-69
-67
-57
-44
-32
-25
-28
-39
-49
-57
-63
-65
-65
-62
-58
-54
-44
-30
-16
-3
4
6
4
7
16
24
32
42
60
89
117
134
141
142
137
125
108
87
57
26
2
-14
-30
-45
-63
-80
-91
-99
-109
-127
-140
-139
-129
-117
-100
-79
-58
-34
-6
19
39
56
75
94
103
101
93
85
76
69
62
52
37
21
11
7
0
-9
-16
-21
-21
-21
-23
-25
-25
-21
-15
-10
-1
11
22
30
31
26
18
10
0
-10
-21
-26
-24
-21
-20
-18
-16
-15
-14
-13
-15
-17
-16
-15
-15
-15
-19
-23
-24
-23
-27
-34
-39
-41
-44
-50
-53
-45
-30
-3
31
56
62
56
43
25
10
8
15
28
46
56
55
47
39
37
34
24
4
-19
-41
-54
-59
-59
-58
-57
-56
-51
-44
-37
-33
-28
-21
-12
-4
5
16
24
31
41
50
59
70
82
93
99
100
97
90
81
68
49
28
8
-6
-17
-28
-37
-39
-38
-39
-43
-45
-43
-38
-30
-20
-12
-7
1
14
21
17
9
0
-10
-20
-26
-29
-33
-39
-39
-37
-35
-30
-20
-12
-9
-9
-9
-8
-3
5
14
19
16
10
9
6
-5
-23
-35
-37
-38
-40
-40
-40
-41
-39
-28
-12
7
30
53
63
58
46
36
31
29
30
30
28
30
34
34
29
24
18
0
-31
-58
-72
-78
-82
-85
-82
-72
-59
-40
-13
11
27
34
35
33
33
37
41
46
57
68
76
74
67
58
50
43
33
17
-3
-21
-31
-39
-46
-52
-49
-39
-29
-16
0
7
10
11
14
14
10
9
14
19
22
21
18
14
8
3
1
0
-3
-3
-3
-5
-12
-17
-19
-22
-27
-28
-24
-17
-10
-6
-6
-9
-12
-13
-13
-14
-18
-20
-24
-32
-39
-40
-37
-24
-4
15
27
32
33
32
31
30
24
13
0
-10
-15
-17
-18
-14
-3
8
10
4
0
1
1
-4
-18
-34
-44
-49
-52
-51
-49
-43
-32
-17
-3
8
19
28
38
46
50
50
50
57
72
81
82
79
78
80
82
80
76
64
42
20
0
-18
-31
-38
-37
-33
-33
-39
-46
-50
-51
-48
-48
-50
-46
-36
-29
-29
-35
-40
-42
-42
-41
-40
-38
-31
-21
-14
-12
-10
-3
3
6
6
8
14
22
30
36
36
30
25
21
16
13
12
10
4
-7
-17
-19
-21
-26
-30
-33
-34
-29
-17
-4
6
15
29
51
76
96
105
97
80
66
56
44
27
9
-5
-15
-28
-43
-59
-69
-72
-70
-73
-81
-80
-66
-50
-39
-34
-27
-18
-8
5
23
37
46
57
68
71
67
62
57
47
37
30
23
13
-2
-21
-36
-47
-60
-67
-65
-57
-43
-29
-15
-1
12
23
31
39
50
58
57
49
41
36
30
23
13
-3
-22
-32
-29
-27
-38
-53
-60
-60
-54
-43
-38
-40
-41
-37
-34
-31
-23
-11
3
16
25
32
35
35
30
26
23
18
14
12
6
0
0
5
8
6
5
10
14
15
14
12
9
5
8
17
23
24
24
26
27
25
22
21
26
33
34
27
19
15
12
8
1
-4
-11
-19
-28
-33
-33
-29
-21
-9
1
0
-16
-41
-61
-71
-79
-86
-83
-71
-56
-43
-36
-36
-37
-30
-21
-18
-21
-22
-17
-10
2
21
39
53
67
81
92
94
92
92
94
90
78
59
41
26
11
-2
-14
-21
-22
-22
-22
-17
-10
-13
-25
-33
-34
-33
-32
-25
-16
-10
-11
-13
-6
2
2
-8
-20
-29
-28
-20
-17
-22
-29
-24
-12
-5
-5
-7
-3
3
14
30
46
58
71
89
104
108
99
79
50
19
-5
-21
-33
-45
-58
-70
-82
-92
-97
-96
-90
-81
-66
-50
-37
-27
-16
-5
2
11
21
26
27
31
40
49
52
52
49
44
39
36
31
17
0
-14
-20
-24
-24
-19
-9
3
21
38
49
52
50
49
49
43
29
10
-10
-34
-60
-76
-76
-64
-46
-33
-33
-43
-54
-57
-50
-36
-17
4
26
45
51
46
41
38
36
31
24
17
8
-6
-21
-27
-25
-19
-17
-21
-30
-41
-53
-60
-61
-57
-51
-38
-17
1
17
32
49
62
71
82
92
95
91
83
75
64
45
25
14
14
20
24
15
-3
-20
-29
-37
-43
-46
-48
-50
-48
-40
-34
-36
-37
-30
-19
-12
-9
-5
2
16
25
27
22
8
-9
-18
-16
-7
1
7
2
-8
-17
-23
-27
-29
-28
-23
-19
-16
-9
-1
7
18
31
37
28
9
-12
-33
-45
-49
-48
-47
-48
-45
-37
-29
-23
-16
-6
7
18
27
35
42
48
57
64
67
65
64
65
65
65
66
67
65
59
47
28
5
-13
-26
-38
-46
-47
-39
-27
-18
-14
-14
-15
-12
-2
3
1
-6
-18
-30
-38
-40
-37
-32
-27
-20
-12
-8
-13
-18
-13
-8
-9
-12
-15
-15
-10
-3
8
27
46
61
68
61
39
17
5
-1
-11
-25
-37
-43
-46
-47
-52
-62
-66
-58
-46
-31
-17
-6
4
14
22
31
39
46
55
65
69
66
60
55
52
54
54
43
18
-12
-37
-56
-70
-79
-80
-74
-53
-13
31
62
67
56
43
28
13
4
1
-3
-16
-32
-46
-56
-61
-61
-56
-53
-55
-57
-57
-57
-49
-33
-18
-4
15
34
50
61
73
86
92
91
89
91
96
96
87
68
43
16
0
-6
-10
-17
-27
-36
-38
-31
-16
-4
-5
-17
-31
-49
-62
-65
-65
-68
-74
-75
-68
-61
-55
-48
-39
-30
-22
-12
0
11
17
26
38
46
51
58
61
59
55
53
51
49
49
56
63
67
69
72
67
54
38
27
12
-13
-38
-57
-74
-92
-106
-114
-117
-115
-110
-103
-97
-88
-76
-66
-59
-48
-33
-18
-1
17
34
46
58
71
85
98
106
109
106
94
76
61
52
47
47
50
46
30
6
-16
-31
-37
-39
-45
-58
-71
-73
-63
-52
-46
-42
-36
-23
-5
12
21
21
17
14
10
3
-2
-3
1
1
1
3
5
7
12
23
33
39
44
49
46
34
19
4
-8
-19
-24
-24
-24
-24
-24
-27
-35
-49
-62
-69
-71
-67
-56
-35
-10
10
25
39
61
84
96
96
83
62
45
34
23
10
-7
-23
-33
-39
-45
-54
-62
-58
-44
-34
-36
-41
-41
-38
-35
-31
-25
-20
-14
-4
6
13
15
21
34
48
59
67
70
70
67
59
44
29
18
12
5
0
-5
-8
-12
-18
-25
-33
-40
-41
-34
-25
-19
-9
6
19
24
25
26
29
31
30
27
23
20
14
6
-5
-17
-28
-37
-44
-50
-55
-60
-62
-56
-47
-38
-29
-19
-8
0
5
5
2
-2
-5
-4
2
10
19
30
40
45
46
46
44
41
44
49
47
41
40
43
40
30
20
10
0
-9
-16
-21
-30
-43
-52
-53
-51
-51
-52
-49
-45
-41
-35
-24
-16
-7
5
18
30
42
55
61
51
34
24
26
33
36
32
21
5
-12
-35
-66
-92
-100
-98
-94
-87
-71
-48
-21
6
30
40
35
29
25
23
25
33
42
46
40
29
20
11
-4
-23
-38
-47
-50
-47
-42
-36
-22
2
30
51
60
61
59
58
62
71
85
90
79
61
42
22
4
-12
-26
-35
-38
-38
-44
-56
-63
-59
-53
-52
-53
-49
-44
-39
-31
-19
-13
-11
-6
4
22
40
53
58
55
47
36
24
12
4
4
9
16
21
16
1
-18
-33
-42
-45
-47
-49
-50
-51
-51
-45
-31
-15
0
12
18
16
16
28
53
79
88
77
56
29
0
-17
-23
-23
-27
-38
-52
-63
-69
-70
-68
-59
-46
-27
-6
7
13
18
25
31
37
44
49
51
50
44
35
31
40
64
89
105
114
112
98
78
60
40
11
-26
-62
-87
-105
-122
-140
-157
-168
-172
-176
-181
-176
-157
-132
-105
-74
-44
-20
0
30
75
111
132
147
166
189
208
215
209
189
155
114
75
40
6
-31
-59
-75
-85
-94
-105
-112
-112
-103
-85
-63
-42
-24
-5
12
32
53
72
85
93
94
87
73
56
34
3
-25
-42
-53
-63
-76
-83
-83
-83
-80
-70
-56
-43
-31
-16
0
17
32
43
46
43
41
42
42
35
28
25
25
25
24
21
14
3
-9
-26
-48
-67
-75
-74
-70
-67
-61
-50
-41
-33
-21
-8
6
22
51
100
140
150
133
100
58
22
-2
-23
-47
-75
-96
-107
-113
-112
-104
-90
-68
-36
-4
18
40
60
73
79
84
86
81
66
46
30
19
11
6
2
-1
-5
-9
-19
-35
-45
-41
-29
-15
-3
5
9
12
16
22
26
31
38
44
42
33
22
16
13
10
2
-8
-19
-25
-25
-29
-39
-47
-50
-48
-46
-43
-39
-32
-23
-12
0
11
25
38
41
34
20
5
-8
-19
-25
-28
-33
-40
-42
-36
-30
-24
-16
-2
12
22
37
63
89
99
88
65
35
12
2
-2
-12
-28
-41
-46
-47
-48
-52
-54
-53
-49
-40
-26
-14
-5
6
26
52
66
65
58
56
60
64
62
60
54
42
26
12
-1
-20
-44
-61
-69
-71
-72
-71
-64
-56
-53
-56
-61
-64
-66
-62
-49
-28
-7
12
29
50
73
92
103
104
99
95
91
82
69
50
27
2
-16
-29
-41
-56
-70
-75
-73
-70
-66
-61
-53
-42
-23
3
21
28
35
44
51
51
45
40
35
25
15
8
3
-1
-2
0
4
2
3
4
0
-9
-17
-20
-19
-17
-16
-16
-18
-15
-9
-4
-4
-4
-3
-4
-6
-8
-10
-12
-14
-12
-11
-7
11
44
76
89
73
38
7
-13
-28
-45
-70
-90
-95
-88
-78
-73
-68
-57
-37
-6
34
67
85
96
111
124
118
90
57
25
-5
-29
-45
-57
-68
-76
-76
-66
-49
-21
17
47
61
73
95
115
113
90
62
30
-3
-29
-47
-65
-91
-120
-138
-142
-140
-131
-113
-88
-61
-30
5
37
62
89
122
151
162
156
143
127
117
115
106
75
18
-51
-108
-146
-170
-184
-184
-164
-133
-94
-39
35
101
136
139
124
103
74
49
41
33
0
-42
-67
-77
-98
-136
-161
-155
-129
-89
-43
2
43
72
86
82
69
58
65
95
113
98
69
36
-4
-45
-76
-96
-105
-97
-74
-49
-30
-14
-2
5
15
35
59
74
70
58
48
41
34
30
27
24
27
39
51
58
58
55
45
32
21
14
6
-7
-22
-33
-42
-49
-51
-51
-54
-58
-57
-45
-32
-24
-18
-11
-7
-6
-7
-12
-23
-36
-43
-37
-28
-16
0
22
36
36
18
-13
-43
-59
-63
-41
21
101
159
180
172
147
101
36
-36
-122
-218
-293
-334
-349
-332
-273
-179
-76
16
83
121
141
154
161
160
155
149
139
127
118
110
106
114
126
129
119
103
82
50
11
-20
-39
-50
-56
-56
-47
-40
-49
-75
-99
-105
-91
-64
-29
0
13
11
0
-7
-7
-1
0
-4
-9
-9
-11
-18
-25
-29
-33
-38
-39
-35
-29
-23
-13
0
13
27
36
28
9
-8
-24
-40
-49
-43
-28
-8
15
39
54
58
51
39
32
32
34
35
35
36
38
36
21
-4
-25
-32
-32
-33
-25
-7
6
8
6
6
5
2
0
0
3
16
40
58
57
38
13
-9
-34
-68
-109
-136
-141
-129
-109
-87
-63
-34
0
34
69
91
97
94
89
81
66
45
24
8
0
-1
2
14
28
28
13
-4
-21
-36
-47
-52
-51
-40
-12
25
44
39
29
12
-17
-42
-44
-26
-1
13
8
0
4
22
35
30
8
-11
-18
-11
-5
-7
-8
-2
7
9
6
5
9
15
17
13
8
3
0
0
4
8
9
4
1
6
12
11
4
-6
-22
-40
-52
-56
-57
-60
-65
-61
-39
-6
23
41
47
44
41
38
34
30
28
34
42
43
39
34
29
21
1
-41
-87
-114
-123
-116
-92
-61
-36
-18
3
35
61
67
62
54
43
26
8
-6
-15
-19
-15
3
31
57
71
66
45
21
-5
-31
-46
-48
-43
-35
-23
-9
3
10
6
-1
-2
5
12
17
20
20
15
12
13
17
21
26
31
26
4
-21
-37
-46
-58
-73
-81
-80
-76
-65
-40
-10
18
47
74
88
81
63
50
41
32
26
24
20
13
9
7
5
5
8
8
-1
-20
-42
-68
-95
-109
-104
-89
-57
-4
41
59
54
43
36
37
48
60
63
57
47
33
12
-21
-62
-87
-92
-89
-77
-55
-28
-5
12
30
45
50
49
48
43
32
20
12
8
8
14
19
17
8
0
-8
-16
-20
-17
-9
-5
-7
-9
-9
-8
-4
1
6
9
13
19
26
30
28
17
-2
-20
-29
-33
-34
-34
-33
-33
-36
-38
-33
-22
-16
-15
-10
0
10
18
26
33
36
36
37
39
35
25
16
11
7
2
-3
-8
-10
-10
-13
-20
-28
-30
-28
-26
-26
-22
-13
-4
3
8
5
0
4
15
27
30
24
20
17
15
14
12
7
0
-8
-13
-18
-23
-25
-27
-28
-23
-13
-1
5
8
11
16
20
24
30
33
33
29
24
19
13
6
-2
-12
-20
-22
-24
-31
-44
-52
-47
-37
-34
-31
-22
-13
-6
-1
0
1
4
7
5
-3
-12
-13
-9
-9
-16
-21
-18
-13
-14
-23
-35
-48
-53
-45
-28
-10
5
21
36
49
57
59
61
69
81
86
81
70
61
55
51
44
36
25
13
8
6
0
-9
-15
-14
-9
-7
-6
-1
2
4
2
1
3
12
20
23
21
22
28
35
37
30
19
4
-12
-26
-40
-56
-71
-73
-65
-55
-43
-29
-18
-11
-8
-7
-6
-6
-4
2
12
19
21
22
22
16
8
0
-12
-28
-44
-56
-64
-69
-71
-65
-52
-41
-31
-22
-14
-6
2
9
17
27
38
45
46
42
37
33
27
19
11
2
-5
-9
-10
-14
-22
-26
-22
-15
-14
-13
-10
-7
-4
0
4
7
12
24
39
46
46
45
39
25
8
-1
-6
-11
-15
-17
-20
-26
-31
-29
-25
-23
-20
-14
-8
-4
1
7
13
21
30
35
36
35
34
32
26
17
8
-3
-14
-18
-20
-25
-32
-33
-22
-5
11
23
28
30
28
22
14
2
-6
-10
-15
-21
-28
-30
-28
-22
-14
-9
-9
-15
-22
-26
-28
-30
-28
-22
-10
0
5
7
5
1
-1
0
2
10
22
34
39
40
36
28
18
11
6
2
-1
-1
0
-3
-13
-24
-24
-17
-12
-10
-8
-5
-2
4
10
14
16
20
23
23
20
19
19
18
16
12
7
4
3
2
-5
-21
-34
-41
-44
-43
-37
-27
-13
0
14
27
35
40
44
47
47
43
36
27
13
1
-2
-4
-8
-15
-19
-24
-32
-42
-47
-43
-38
-33
-25
-12
1
13
21
25
26
29
34
36
34
27
21
13
5
-2
-8
-13
-19
-24
-30
-40
-47
-45
-38
-28
-15
-2
4
9
14
20
22
22
25
30
31
26
15
6
-3
-16
-27
-31
-32
-30
-26
-25
-27
-29
-23
-12
-5
-3
-1
3
9
16
22
26
31
40
48
49
46
40
31
21
12
4
-2
-11
-17
-20
-24
-31
-38
-38
-30
-21
-15
-7
3
8
11
15
17
14
12
14
17
15
10
7
6
5
3
3
3
2
0
-5
-16
-26
-30
-30
-30
-28
-21
-12
-2
6
12
11
11
20
33
38
35
28
23
18
13
8
5
2
-3
-8
-12
-19
-32
-45
-48
-40
-27
-7
14
34
51
61
61
55
51
47
38
24
8
-5
-18
-34
-47
-48
-43
-39
-44
-59
-75
-83
-81
-73
-67
-63
-56
-48
-46
-47
-44
-34
-20
0
25
44
52
57
58
55
48
41
34
28
20
13
8
2
-6
-12
-11
-8
-7
-5
0
3
7
13
19
25
31
39
45
48
50
47
43
35
27
23
19
16
12
3
-10
-24
-30
-31
-30
-32
-32
-27
-22
-16
-5
3
8
13
22
33
39
41
42
43
41
33
18
0
-18
-33
-39
-41
-41
-31
-12
4
12
14
10
3
-5
-8
-6
-4
-2
-1
-2
-4
-5
-6
-4
0
5
10
7
0
-8
-13
-21
-38
-57
-69
-74
-78
-80
-76
-67
-52
-34
-11
8
27
46
64
75
79
77
75
70
63
57
51
46
40
31
17
4
-4
-9
-13
-18
-20
-21
-23
-25
-24
-20
-17
-12
-3
5
9
8
6
3
1
-2
-5
-8
-13
-16
-17
-21
-27
-32
-28
-21
-16
-10
3
17
28
40
50
52
49
48
53
56
50
34
14
-5
-24
-42
-56
-63
-66
-70
-74
-79
-77
-69
-59
-47
-33
-17
1
22
39
48
53
52
49
43
33
24
20
18
13
5
-3
-16
-35
-47
-47
-41
-35
-27
-15
0
11
21
30
32
27
23
25
31
39
47
55
56
49
44
47
54
56
47
28
3
-18
-38
-53
-64
-69
-69
-70
-71
-66
-55
-45
-39
-35
-30
-24
-16
0
24
40
46
49
46
34
21
11
5
2
3
4
0
-7
-13
-13
-11
-9
-8
-5
0
6
11
14
15
16
20
28
35
37
32
25
19
14
6
-4
-15
-21
-25
-27
-20
-1
19
32
32
21
8
-2
-12
-23
-31
-35
-36
-35
-36
-42
-53
-60
-64
-66
-62
-55
-44
-33
-15
10
29
36
35
34
32
32
33
36
42
46
48
50
52
58
69
77
72
57
40
24
11
0
-10
-22
-36
-45
-47
-51
-61
-72
-72
-63
-53
-39
-19
-1
8
16
21
22
21
23
24
21
12
3
0
1
7
16
20
16
11
3
-9
-22
-25
-23
-21
-23
-25
-23
-17
-10
-5
0
3
8
16
24
30
35
46
63
77
74
57
37
14
-7
-22
-31
-39
-43
-37
-30
-28
-29
-36
-51
-67
-73
-71
-68
-66
-57
-40
-21
-3
8
14
17
18
19
18
16
16
21
23
22
20
22
31
43
51
54
56
55
53
52
47
40
36
34
29
21
14
7
-2
-16
-26
-28
-29
-32
-35
-36
-38
-40
-39
-34
-25
-17
-10
-4
0
5
16
27
36
41
41
37
26
10
-2
-9
-18
-28
-39
-49
-54
-58
-65
-75
-78
-69
-55
-44
-36
-25
-9
6
22
36
43
45
49
57
68
80
92
105
117
119
107
90
68
36
-4
-43
-72
-92
-107
-118
-125
-127
-127
-129
-130
-122
-104
-85
-63
-32
0
24
44
62
84
99
102
96
85
70
57
51
45
39
34
31
29
31
32
30
27
28
30
30
23
14
10
10
8
1
-9
-16
-19
-23
-30
-37
-42
-46
-47
-42
-34
-28
-29
-30
-24
-17
-8
-2
-1
-3
-6
-7
-7
-4
4
8
6
3
4
12
20
25
24
17
6
2
4
6
1
-10
-19
-20
-15
-8
-4
-2
1
9
15
11
3
-2
-7
-13
-14
-8
2
11
17
23
25
25
25
22
10
-3
-14
-22
-33
-47
-56
-55
-49
-45
-42
-40
-37
-34
-26
-18
-10
-3
2
8
14
22
31
40
46
57
64
59
51
48
53
58
58
49
38
29
24
22
20
16
13
15
19
20
14
4
-8
-22
-35
-47
-60
-67
-67
-64
-62
-58
-49
-34
-20
-8
1
9
13
13
9
6
9
20
36
49
48
38
28
19
9
0
-6
-9
-19
-30
-35
-35
-36
-34
-26
-17
-14
-16
-20
-26
-28
-24
-18
-13
-5
4
13
15
18
27
32
32
31
23
1
-21
-34
-40
-45
-53
-55
-45
-28
-12
0
8
15
21
30
35
32
29
34
49
66
76
76
70
65
60
53
42
27
10
-5
-18
-28
-34
-38
-42
-46
-49
-47
-41
-33
-27
-22
-19
-14
-3
5
11
16
26
35
33
24
16
6
-4
-12
-16
-20
-28
-36
-38
-31
-22
-14
-7
-3
-4
-2
9
33
61
81
88
75
51
28
10
-4
-14
-18
-21
-29
-42
-56
-70
-78
-80
-80
-78
-79
-84
-85
-79
-68
-50
-30
-11
8
30
49
55
51
48
53
60
60
58
55
50
41
32
22
13
6
6
14
24
30
30
28
25
25
28
29
28
30
33
33
31
28
22
12
1
-7
-13
-19
-25
-30
-37
-46
-52
-49
-44
-43
-44
-41
-29
-7
19
41
49
50
55
69
83
87
77
55
23
-7
-29
-46
-65
-87
-103
-110
-113
-116
-116
-109
-97
-86
-76
-63
-46
-26
-7
6
19
34
50
63
72
84
97
104
101
87
64
41
25
21
22
16
0
-16
-30
-41
-51
-54
-48
-42
-31
-11
3
11
18
28
38
42
37
28
21
15
9
4
1
-2
-4
-1
5
14
22
29
33
32
31
33
32
29
25
18
12
8
7
7
2
-8
-19
-29
-35
-40
-45
-51
-51
-45
-37
-28
-15
-5
-1
-3
-5
-4
0
0
-9
-22
-35
-41
-37
-28
-22
-23
-26
-28
-30
-35
-40
-35
-23
-9
4
17
28
34
33
31
29
25
22
18
10
4
2
3
5
8
8
2
-5
-12
-15
-13
-8
-2
4
16
36
58
70
72
68
67
64
56
48
43
40
42
51
61
59
42
21
4
-9
-24
-41
-56
-64
-71
-76
-80
-81
-82
-80
-82
-92
-100
-98
-89
-77
-59
-36
-12
12
35
49
51
51
55
62
65
63
59
55
52
49
46
38
24
10
0
-6
-13
-19
-17
-8
-2
1
2
-2
-11
-16
-14
-13
-15
-14
-9
-6
-8
-15
-20
-18
-13
-8
-8
-12
-13
-7
-2
-3
-6
-3
2
8
14
18
21
25
34
48
54
48
41
35
22
5
-10
-19
-29
-43
-53
-56
-55
-56
-58
-59
-60
-62
-63
-60
-52
-40
-21
1
23
40
58
75
92
106
115
116
110
103
94
83
72
58
35
7
-10
-14
-13
-18
-31
-41
-41
-41
-45
-53
-60
-66
-73
-79
-84
-81
-67
-49
-33
-24
-19
-12
-10
-16
-25
-29
-27
-23
-16
-6
5
17
28
43
59
70
74
76
74
69
61
55
51
50
55
55
48
38
27
15
3
-7
-14
-22
-31
-40
-48
-57
-67
-77
-84
-83
-79
-75
-65
-51
-37
-25
-13
0
16
30
35
33
33
43
56
64
62
50
31
13
4
-1
-11
-22
-27
-25
-24
-25
-23
-16
-7
7
26
36
37
39
52
72
84
79
62
41
18
-2
-19
-32
-48
-66
-78
-86
-96
-104
-102
-91
-78
-67
-54
-37
-19
-5
5
14
29
46
61
66
64
60
55
47
39
32
26
23
25
31
33
30
23
18
15
8
-3
-12
-13
-12
-10
-8
-4
2
10
20
30
36
34
25
11
-3
-19
-33
-41
-44
-45
-50
-55
-56
-54
-50
-46
-41
-34
-25
-13
0
6
6
5
11
20
28
34
42
51
51
41
27
12
-3
-12
-13
-13
-5
20
48
59
53
37
19
3
-7
-13
-19
-30
-39
-40
-38
-38
-37
-32
-28
-32
-48
-69
-81
-79
-68
-48
-17
11
30
41
54
71
82
87
90
88
83
72
54
37
24
14
6
-2
-13
-29
-49
-66
-75
-78
-78
-78
-75
-69
-62
-46
-17
13
38
50
56
65
75
83
93
102
106
105
100
88
70
51
32
11
-13
-39
-65
-87
-97
-99
-104
-114
-118
-110
-94
-72
-54
-44
-41
-40
-33
-21
-8
5
29
62
95
123
145
151
136
110
87
68
45
19
-2
-21
-44
-72
-103
-128
-141
-145
-143
-133
-117
-97
-79
-66
-57
-44
-28
-12
5
30
54
70
80
88
95
99
101
104
103
96
83
71
59
47
33
23
17
13
14
21
21
18
20
24
23
18
9
0
-10
-20
-26
-29
-35
-39
-39
-38
-38
-35
-25
-13
-6
-7
-14
-23
-33
-42
-43
-39
-35
-26
-16
-10
-7
-6
-11
-20
-28
-35
-40
-45
-47
-42
-32
-22
-13
-1
9
12
3
-5
-7
-4
5
16
20
20
26
36
42
44
43
42
39
37
38
37
33
29
29
34
35
30
25
16
6
-2
-7
-8
-3
2
8
9
4
-3
-8
-12
-15
-18
-23
-29
-32
-31
-30
-33
-36
-34
-30
-26
-22
-11
0
4
2
2
10
21
34
45
50
50
48
43
35
23
7
-6
-16
-24
-29
-29
-25
-24
-26
-30
-37
-41
-38
-33
-30
-29
-24
-14
1
20
42
61
76
80
75
63
43
20
-2
-22
-30
-29
-28
-37
-59
-83
-94
-93
-91
-92
-88
-75
-59
-41
-23
-8
4
19
36
54
66
72
73
75
79
80
76
71
67
65
60
54
50
50
43
31
23
23
30
40
53
64
67
57
36
7
-18
-35
-45
-56
-76
-94
-104
-108
-111
-113
-105
-85
-62
-43
-35
-37
-49
-56
-45
-18
5
17
22
26
30
33
30
21
12
8
8
8
8
11
13
14
13
12
13
14
18
24
19
-1
-23
-35
-39
-36
-30
-21
-10
0
13
25
34
42
50
53
53
53
60
69
70
63
54
47
47
49
36
4
-30
-52
-63
-70
-80
-92
-99
-103
-105
-100
-89
-77
-63
-42
-20
-3
10
27
47
64
71
72
79
96
110
109
94
71
49
34
26
21
12
0
-9
-13
-13
-11
-12
-18
-25
-34
-51
-75
-89
-90
-88
-84
-72
-55
-38
-23
-10
2
24
57
89
99
85
62
45
31
14
-4
-21
-33
-39
-40
-39
-40
-41
-42
-47
-53
-55
-49
-41
-33
-24
-13
-4
2
10
29
52
70
79
83
85
81
75
70
64
55
45
38
29
17
7
0
-7
-14
-21
-32
-44
-53
-57
-61
-67
-67
-58
-48
-41
-31
-15
3
19
30
34
29
24
26
31
32
26
21
19
19
20
23
23
16
3
-15
-36
-54
-68
-77
-77
-70
-57
-39
-17
3
23
38
44
42
34
26
19
17
21
25
22
14
4
-7
-25
-39
-46
-51
-57
-57
-44
-22
0
21
43
54
54
52
49
44
39
40
45
53
62
66
58
42
24
9
0
-1
1
1
-7
-24
-38
-46
-53
-62
-70
-73
-71
-66
-57
-49
-43
-36
-25
-9
2
10
19
24
21
14
12
19
29
34
30
17
1
-10
-12
-10
-13
-23
-36
-42
-40
-35
-25
-11
2
16
33
49
60
59
50
39
33
33
37
41
42
36
19
-2
-18
-26
-34
-44
-53
-52
-45
-36
-24
-13
-4
4
17
33
42
45
47
47
43
37
30
22
16
10
2
-10
-26
-39
-45
-45
-41
-38
-38
-37
-33
-25
-17
-9
-4
3
14
27
38
47
49
43
33
18
0
-16
-27
-35
-46
-61
-70
-67
-60
-50
-37
-26
-19
-12
1
21
32
35
38
45
55
60
65
67
64
62
63
61
51
31
6
-16
-31
-43
-49
-51
-54
-54
-53
-56
-58
-55
-48
-41
-35
-24
-10
1
8
16
27
35
36
34
33
31
30
32
31
24
14
8
4
1
-5
-15
-19
-19
-18
-13
-6
-1
5
16
26
30
30
31
34
39
49
58
58
47
25
-5
-33
-51
-61
-70
-76
-78
-75
-70
-67
-65
-64
-60
-53
-35
-4
23
39
47
51
50
44
38
38
42
47
52
57
53
40
29
25
26
25
17
3
-6
-14
-21
-34
-54
-65
-66
-65
-64
-61
-55
-50
-46
-40
-30
-18
-3
12
23
29
29
31
36
42
50
56
63
72
75
69
54
34
18
5
-8
-22
-32
-37
-40
-44
-46
-46
-48
-48
-43
-35
-29
-21
-5
12
25
33
36
37
36
38
43
41
32
23
20
19
14
2
-8
-14
-20
-24
-25
-23
-18
-14
-16
-28
-39
-42
-37
-31
-31
-34
-33
-28
-22
-14
-7
4
24
51
73
78
69
58
43
22
2
-12
-23
-35
-44
-49
-52
-54
-49
-35
-20
-9
-1
9
26
39
46
51
58
68
73
68
54
34
15
3
-6
-15
-25
-34
-40
-37
-31
-29
-30
-26
-18
-10
-5
-3
-4
-4
-4
-4
-5
-7
-6
-1
8
20
29
31
29
21
8
-6
-18
-27
-34
-38
-39
-40
-45
-44
-30
-12
-1
1
1
6
15
22
25
29
37
45
47
44
37
28
19
12
6
1
-1
0
3
0
-12
-21
-20
-10
-1
4
8
12
13
13
10
0
-7
-8
-7
-12
-22
-30
-32
-33
-36
-38
-39
-38
-28
-11
1
8
16
27
40
46
41
32
25
18
9
0
-2
-1
3
2
-4
-13
-18
-18
-13
-6
-1
1
7
17
21
13
-4
-24
-37
-39
-32
-27
-27
-28
-24
-15
-3
9
23
32
34
36
45
62
75
73
62
46
26
2
-17
-34
-53
-75
-87
-85
-78
-72
-67
-57
-39
-18
4
30
48
56
60
61
59
54
49
44
40
35
26
16
9
4
0
-6
-15
-22
-23
-22
-19
-18
-19
-21
-19
-12
-4
0
0
0
3
6
5
2
1
0
-3
-6
-9
-14
-14
-11
-13
-22
-31
-32
-27
-17
-6
2
7
9
9
8
12
20
33
43
49
52
53
47
39
33
23
8
-11
-33
-55
-73
-76
-65
-52
-44
-42
-41
-41
-37
-32
-28
-24
-18
-2
24
50
63
65
59
52
45
41
39
36
28
18
10
2
-7
-17
-18
-14
-9
-4
2
12
23
30
28
18
9
9
13
8
-7
-22
-31
-37
-45
-52
-55
-54
-49
-36
-21
-13
-11
-8
-2
4
9
12
15
18
21
25
28
29
32
37
39
35
29
22
15
7
2
0
-5
-11
-14
-15
-19
-25
-30
-33
-33
-29
-27
-25
-21
-15
-5
10
26
38
44
47
44
36
27
19
12
6
-1
-10
-18
-22
-28
-40
-48
-47
-41
-30
-12
10
30
45
53
50
38
24
13
1
-16
-35
-46
-51
-55
-60
-59
-53
-44
-27
-5
7
6
0
-1
5
17
26
32
35
37
37
38
38
37
39
41
41
38
32
25
19
15
13
10
2
-8
-17
-27
-41
-50
-50
-45
-40
-34
-33
-31
-27
-19
-7
3
12
22
33
40
41
36
29
19
6
-4
-12
-17
-21
-22
-20
-20
-19
-11
2
15
23
24
21
20
22
24
21
11
0
-5
-10
-17
-25
-32
-36
-33
-25
-18
-14
-11
-3
2
1
-4
-10
-8
-1
2
6
11
14
17
28
47
60
61
56
44
25
5
-6
-15
-29
-47
-58
-60
-56
-50
-46
-42
-36
-26
-18
-13
-8
-5
-2
4
17
30
39
42
44
48
50
47
42
37
30
23
15
9
2
-7
-15
-20
-26
-33
-38
-39
-35
-27
-21
-15
-11
-6
0
6
12
18
26
33
32
28
25
22
18
11
1
-9
-18
-22
-26
-34
-44
-47
-41
-31
-20
-11
-5
0
6
14
20
21
23
31
44
51
50
46
39
26
12
0
-11
-24
-34
-41
-47
-51
-48
-38
-25
-14
-7
0
7
13
17
20
20
20
23
25
24
19
12
9
6
2
-6
-18
-28
-33
-36
-43
-53
-56
-48
-34
-20
-9
1
9
15
22
30
37
43
51
54
48
37
27
19
11
1
-6
-14
-25
-39
-52
-60
-58
-46
-28
-11
-1
3
8
14
20
26
30
31
34
39
42
41
38
35
31
28
25
20
11
0
-8
-16
-32
-56
-75
-81
-78
-69
-57
-44
-31
-15
6
34
53
61
62
59
51
43
40
39
35
23
11
2
-4
-11
-18
-26
-35
-42
-45
-45
-40
-34
-29
-27
-29
-24
-15
-5
9
33
50
51
45
40
35
27
21
19
15
5
-4
-11
-19
-30
-37
-30
-15
-2
6
12
12
10
5
-5
-24
-37
-39
-39
-42
-45
-38
-19
1
18
29
32
29
25
21
12
4
0
-2
0
6
11
13
16
23
32
38
36
30
27
24
16
3
-8
-16
-19
-21
-21
-22
-21
-10
1
4
0
-13
-30
-43
-47
-46
-41
-27
-9
9
26
44
61
68
61
47
31
15
4
-2
-7
-11
-12
-11
-10
-10
-17
-28
-33
-30
-25
-21
-18
-18
-13
-7
-1
4
7
10
14
17
18
17
15
15
14
4
-5
-9
-9
-11
-19
-31
-41
-45
-43
-36
-22
-2
10
10
6
9
15
17
18
21
26
28
30
35
43
49
50
45
30
14
3
-4
-17
-35
-46
-47
-40
-31
-24
-21
-17
-13
-6
6
15
20
28
41
49
42
25
9
-8
-25
-34
-37
-37
-36
-34
-32
-29
-22
-10
1
8
14
18
13
0
-6
-5
-2
0
4
12
22
30
35
37
36
30
23
12
-2
-13
-16
-18
-29
-48
-62
-65
-59
-50
-38
-25
-11
4
19
32
41
50
58
61
59
55
50
44
31
14
-1
-12
-23
-33
-43
-51
-51
-45
-31
-9
11
22
24
21
15
10
7
6
8
14
19
21
22
24
24
19
10
0
-13
-27
-34
-32
-34
-39
-40
-36
-27
-21
-21
-25
-26
-20
-11
-5
1
13
26
37
43
45
42
36
25
13
0
-9
-13
-11
-11
-17
-19
-13
-6
0
2
1
0
3
5
5
4
6
11
20
25
23
17
11
6
-1
-9
-15
-19
-22
-29
-36
-39
-39
-33
-22
-11
0
3
1
-1
1
11
19
24
36
51
60
58
48
35
22
10
0
-5
-10
-14
-14
-17
-23
-32
-34
-27
-17
-9
-2
-1
-3
-3
-3
-5
-7
-7
0
8
15
17
17
16
11
5
-3
-13
-19
-23
-28
-33
-35
-33
-27
-18
-10
-4
-3
-3
-1
1
2
3
8
18
26
29
30
29
28
26
26
26
21
11
4
0
-7
-17
-24
-26
-25
-22
-19
-16
-11
-4
3
10
17
26
37
47
51
47
37
25
13
0
-14
-23
-26
-25
-26
-34
-43
-46
-42
-36
-31
-24
-16
-6
4
14
18
16
17
24
34
37
32
24
16
8
2
1
0
-2
-5
-9
-16
-24
-31
-34
-34
-30
-25
-23
-20
-15
-9
-2
6
21
38
51
58
56
45
33
21
10
-1
-10
-15
-17
-19
-26
-36
-40
-38
-33
-26
-17
-10
-4
3
11
18
22
24
26
29
29
25
23
20
14
4
-4
-12
-17
-19
-20
-22
-24
-25
-22
-17
-12
-6
-2
0
5
12
14
13
13
20
27
26
20
14
10
6
1
-2
-5
-9
-12
-10
-10
-14
-21
-24
-22
-16
-6
1
2
3
7
13
14
14
18
20
15
8
3
3
7
12
14
9
0
-9
-17
-25
-33
-35
-32
-24
-14
-5
-2
0
6
19
26
27
25
24
23
20
14
9
3
-4
-11
-15
-19
-22
-22
-20
-22
-26
-31
-31
-28
-21
-10
1
9
15
22
28
30
30
31
34
35
30
22
15
11
7
2
-5
-15
-19
-18
-19
-28
-35
-34
-29
-22
-15
-11
-9
-4
7
19
23
22
20
18
18
17
15
14
13
11
7
3
-2
-8
-12
-18
-24
-28
-29
-28
-23
-16
-12
-9
-4
1
7
11
17
27
36
36
31
25
21
16
8
0
-6
-15
-20
-21
-24
-30
-35
-35
-27
-17
-8
0
4
6
9
10
10
12
17
26
31
32
29
27
23
18
11
4
-1
-8
-13
-20
-29
-36
-37
-33
-26
-17
-10
-6
-3
1
6
8
8
14
24
31
31
31
30
26
17
9
5
1
-5
-11
-15
-21
-29
-33
-32
-26
-17
-8
-4
-5
-6
-2
1
1
3
8
15
19
20
22
22
18
12
6
0
-7
-10
-16
-29
-40
-41
-33
-20
-6
0
0
0
2
3
3
4
9
18
25
29
29
30
31
32
32
32
26
13
-2
-16
-27
-35
-39
-39
-37
-34
-29
-24
-20
-14
-6
0
6
16
28
36
38
37
34
28
22
17
8
-6
-18
-20
-19
-26
-37
-43
-41
-36
-28
-21
-14
-6
-1
3
8
13
18
27
34
38
39
37
33
26
18
13
9
4
-3
-13
-24
-31
-33
-27
-18
-13
-8
-5
-5
-3
2
8
11
14
19
20
17
12
10
6
0
-4
-4
0
4
9
10
3
-13
-30
-38
-38
-36
-33
-23
-12
-4
2
8
12
16
23
31
35
35
33
30
26
18
8
-2
-11
-18
-28
-44
-56
-59
-55
-46
-35
-23
-12
-2
8
19
25
24
22
25
29
29
25
21
18
16
12
8
4
0
-1
-4
-8
-15
-19
-19
-15
-14
-13
-9
-1
5
11
15
15
17
22
30
35
34
28
18
8
0
-3
-7
-13
-17
-20
-24
-30
-31
-26
-18
-11
-8
-10
-14
-14
-9
0
6
11
18
28
36
39
36
32
27
19
7
-3
-13
-23
-31
-38
-43
-44
-39
-31
-20
-9
-2
1
4
7
9
9
11
18
24
24
19
13
7
4
4
5
7
8
8
7
0
-13
-28
-35
-32
-25
-20
-12
0
8
15
22
27
30
33
36
32
23
14
8
1
-6
-14
-20
-24
-27
-29
-34
-42
-47
-46
-40
-28
-13
-1
4
8
10
11
13
13
17
24
27
24
22
20
16
8
1
-3
-9
-14
-13
-8
-6
-2
3
3
-1
-1
2
3
2
5
11
18
26
33
39
38
30
20
12
8
1
-7
-19
-31
-37
-39
-42
-48
-50
-44
-34
-20
-1
12
16
17
18
17
13
10
13
26
43
50
49
47
42
30
17
11
10
9
5
-3
-17
-36
-52
-63
-72
-73
-67
-59
-51
-41
-31
-22
-13
-2
9
16
16
15
19
27
35
41
44
40
35
31
23
10
-4
-12
-12
-8
-3
0
0
-1
0
7
12
15
19
25
27
24
19
17
17
12
3
-3
-6
-9
-13
-13
-13
-16
-19
-22
-29
-33
-29
-24
-21
-18
-15
-11
-5
3
14
21
21
17
11
4
0
0
4
1
-9
-18
-21
-22
-21
-21
-19
-18
-13
-4
6
11
14
16
16
18
24
33
40
39
33
25
20
16
7
-7
-20
-23
-21
-23
-33
-42
-39
-27
-14
-1
11
18
15
7
3
1
0
0
6
12
14
13
15
18
16
10
8
4
-1
-7
-11
-14
-19
-23
-23
-21
-18
-14
-12
-15
-16
-12
-8
-5
1
11
21
27
32
37
38
34
27
20
12
5
1
-1
-8
-17
-19
-12
-7
-6
-3
-2
-6
-7
0
7
11
14
18
21
16
7
1
-3
-8
-12
-15
-17
-16
-13
-4
1
-3
-13
-19
-22
-22
-20
-18
-18
-20
-19
-14
-8
0
14
21
18
15
15
18
19
15
10
6
6
11
22
35
45
53
58
53
36
9
-23
-49
-60
-57
-53
-51
-45
-35
-26
-24
-27
-30
-30
-29
-28
-27
-23
-15
-2
17
41
62
77
85
82
67
48
29
11
-4
-11
-11
-8
-6
-8
-17
-29
-36
-36
-34
-32
-30
-25
-20
-17
-14
-12
-11
-9
-5
0
3
6
11
19
22
20
23
34
49
62
68
67
61
49
31
17
9
2
-7
-20
-29
-32
-32
-37
-50
-61
-62
-60
-57
-56
-53
-47
-38
-20
-1
10
16
24
33
39
40
39
37
31
22
18
23
33
42
48
41
22
-2
-23
-39
-48
-47
-40
-28
-14
-1
8
14
20
28
31
24
9
-8
-21
-26
-21
-10
-2
-5
-16
-29
-40
-54
-67
-73
-71
-69
-64
-52
-36
-20
-5
8
21
30
38
47
55
58
57
58
58
57
57
55
50
44
38
31
20
8
1
0
2
7
14
19
22
25
28
25
19
15
15
17
16
11
5
-2
-10
-14
-18
-25
-29
-22
-10
-7
-15
-28
-31
-26
-23
-23
-24
-25
-27
-32
-44
-59
-67
-65
-62
-61
-61
-58
-52
-48
-47
-47
-46
-39
-24
-5
12
25
41
61
83
105
116
110
100
93
85
74
65
60
55
44
28
13
-1
-20
-44
-64
-74
-79
-81
-79
-76
-74
-71
-64
-53
-39
-26
-10
3
16
32
47
56
61
68
77
80
76
69
63
57
50
42
33
21
11
5
1
-7
-26
-40
-42
-40
-35
-26
-18
-15
-13
-11
-11
-10
-5
1
6
7
5
2
0
-4
-11
-20
-28
-35
-39
-43
-47
-50
-50
-46
-43
-39
-31
-19
-3
14
32
45
52
60
63
56
42
30
26
28
30
27
17
0
-15
-25
-34
-53
-75
-88
-87
-83
-81
-76
-65
-50
-28
0
26
41
47
50
48
42
35
29
25
24
26
28
25
19
17
18
16
9
2
-3
-7
-6
1
7
11
15
21
28
34
39
45
52
52
44
32
21
8
-2
-9
-15
-19
-22
-23
-25
-28
-29
-26
-23
-24
-26
-27
-25
-18
-9
-1
6
15
24
27
19
7
0
-2
-6
-13
-22
-28
-30
-29
-30
-36
-44
-45
-40
-32
-22
-10
0
11
23
39
51
59
71
89
105
102
83
60
36
11
-7
-18
-26
-35
-45
-55
-67
-79
-87
-88
-85
-82
-77
-72
-68
-61
-48
-31
-12
9
28
41
49
54
60
63
64
67
72
78
82
85
83
63
27
-2
-14
-16
-18
-21
-21
-18
-15
-13
-10
-5
5
18
25
19
6
-6
-17
-29
-42
-50
-50
-48
-46
-44
-46
-51
-54
-52
-47
-40
-28
-11
4
20
34
46
51
55
66
80
83
77
66
51
38
25
12
-4
-21
-29
-31
-36
-51
-70
-81
-84
-84
-83
-81
-70
-45
-15
13
40
61
71
72
62
45
31
24
22
21
21
20
19
21
26
25
19
13
11
14
18
23
29
32
35
43
47
40
26
13
4
-1
-7
-13
-20
-29
-35
-42
-52
-63
-70
-68
-62
-59
-59
-52
-40
-26
-16
-11
-6
-1
5
13
14
13
15
20
21
16
9
1
-3
-7
-7
-5
-3
0
0
-4
-15
-23
-23
-16
-9
-3
4
13
18
23
29
30
29
31
36
41
39
33
29
28
29
28
26
22
18
12
1
-16
-33
-45
-51
-55
-55
-51
-44
-37
-33
-28
-24
-23
-21
-17
-13
-8
-1
7
15
21
28
37
47
53
53
48
37
28
22
17
9
-2
-10
-13
-8
2
10
16
21
27
31
34
34
32
29
24
11
-10
-31
-47
-58
-65
-73
-83
-92
-94
-89
-80
-71
-63
-57
-47
-26
-1
21
40
55
61
57
49
41
36
36
38
38
35
31
26
20
13
7
0
-5
-9
-9
-9
-8
0
19
45
65
78
88
91
86
72
47
15
-9
-27
-42
-57
-70
-80
-83
-79
-76
-82
-88
-86
-79
-69
-52
-31
-9
4
17
37
55
65
69
74
81
87
93
100
101
92
75
51
25
1
-22
-43
-63
-83
-102
-120
-126
-119
-105
-88
-73
-58
-46
-41
-36
-24
-7
9
20
30
43
54
60
59
60
63
64
66
67
61
49
40
39
38
30
15
0
-14
-29
-41
-49
-50
-41
-26
-12
-5
-2
-2
-5
-10
-12
-11
-7
3
18
28
22
5
-8
-12
-11
-9
-7
-3
-2
-2
-1
-2
-5
-5
1
9
15
14
1
-16
-30
-34
-32
-29
-28
-27
-23
-17
-11
3
20
33
42
50
57
55
48
43
39
31
28
32
37
30
6
-17
-29
-37
-42
-45
-45
-43
-39
-35
-31
-24
-13
-5
-5
-8
-6
2
11
17
22
21
13
3
-3
-12
-20
-24
-26
-26
-24
-15
-2
6
9
11
12
9
3
0
-1
-3
-8
-14
-18
-20
-21
-18
-9
1
11
20
27
30
26
17
10
7
10
21
35
43
43
39
29
15
2
-5
-10
-15
-19
-18
-15
-11
-4
5
13
24
42
61
74
74
63
46
21
-9
-33
-46
-53
-60
-65
-68
-72
-73
-71
-64
-58
-53
-44
-31
-20
-12
-5
0
12
36
58
68
66
59
55
51
45
34
20
0
-21
-33
-43
-56
-72
-81
-79
-72
-53
-17
18
35
39
39
36
31
26
22
15
7
3
5
8
13
18
22
20
11
-1
-21
-40
-45
-38
-25
-10
3
12
14
13
16
25
39
56
76
90
88
73
58
46
35
25
19
17
10
-6
-25
-41
-61
-83
-95
-93
-81
-67
-51
-37
-28
-22
-19
-19
-19
-14
-4
3
5
7
15
28
41
53
54
46
35
25
14
-2
-19
-28
-29
-27
-24
-17
-9
-6
-11
-23
-33
-41
-46
-48
-47
-42
-31
-9
22
45
53
52
46
44
46
50
49
42
30
17
6
0
-2
-4
-8
-8
-6
-9
-13
-12
-8
-8
-13
-17
-11
0
10
14
16
15
13
10
6
0
-3
0
5
6
3
4
9
13
14
15
14
12
10
7
2
0
3
8
9
4
-2
-7
-14
-21
-27
-35
-42
-46
-46
-43
-39
-37
-33
-29
-26
-25
-21
-17
-13
-3
12
30
43
51
55
53
44
34
24
10
0
-3
-2
-3
-6
-2
10
22
25
20
10
2
-5
-12
-19
-24
-23
-19
-18
-21
-24
-20
-11
0
7
6
2
-1
-13
-36
-55
-56
-42
-24
-11
-4
0
4
11
24
40
52
61
76
97
107
100
86
70
55
40
27
16
4
-5
-14
-28
-47
-69
-87
-93
-91
-88
-87
-88
-87
-80
-67
-51
-34
-15
1
14
23
32
39
42
43
48
55
58
58
58
60
60
56
52
50
47
32
14
0
-12
-26
-37
-44
-48
-46
-32
-10
4
9
9
1
-15
-32
-41
-48
-57
-63
-62
-60
-59
-58
-53
-47
-40
-31
-18
-3
10
26
41
53
65
76
82
82
81
84
86
85
80
61
25
-7
-24
-31
-41
-50
-49
-37
-24
-17
-16
-19
-18
-3
25
49
59
63
62
54
37
14
-4
-19
-34
-49
-58
-62
-68
-77
-86
-93
-96
-91
-76
-56
-34
-14
5
28
47
59
65
67
73
81
88
88
80
61
39
20
5
-13
-38
-57
-64
-65
-65
-69
-72
-68
-60
-49
-32
-15
0
12
25
36
42
47
57
68
73
67
57
48
41
31
19
9
3
7
19
27
27
21
11
0
-10
-18
-22
-29
-40
-47
-47
-44
-40
-30
-17
-8
-7
-18
-36
-50
-53
-49
-46
-45
-41
-34
-26
-19
-14
-8
3
17
34
55
70
74
75
76
71
63
57
49
40
32
32
39
44
36
14
-10
-32
-47
-63
-88
-111
-123
-123
-118
-111
-97
-79
-61
-44
-27
-12
0
14
35
58
72
79
84
93
105
114
116
113
105
91
72
51
29
12
5
4
3
0
-15
-40
-60
-66
-67
-71
-77
-77
-70
-62
-53
-38
-21
-7
2
11
18
20
20
21
24
22
14
4
-3
-10
-12
-7
2
12
22
31
31
25
19
12
-2
-21
-35
-41
-43
-39
-25
-2
21
36
36
19
-5
-29
-43
-49
-52
-52
-45
-34
-24
-17
-12
-10
-4
9
26
37
39
32
19
8
12
29
51
62
62
60
56
40
13
-9
-22
-34
-43
-48
-50
-49
-42
-34
-29
-24
-19
-10
-3
-2
-2
0
7
14
20
25
31
39
44
41
33
26
26
33
38
41
46
52
54
51
50
45
34
20
6
-7
-23
-41
-58
-71
-78
-79
-80
-82
-76
-62
-47
-32
-18
-9
-6
-9
-8
2
12
17
23
30
35
38
44
49
45
28
7
-10
-27
-42
-57
-72
-80
-83
-81
-75
-66
-54
-38
-17
7
29
43
55
66
77
84
81
72
64
58
48
36
26
17
9
4
5
16
34
49
45
23
-3
-27
-44
-50
-48
-46
-44
-40
-38
-40
-40
-40
-40
-35
-25
-19
-15
-11
-2
5
10
18
27
32
36
44
52
53
47
36
25
15
4
-3
-5
-7
-6
-1
11
32
57
74
76
61
39
22
5
-20
-44
-57
-62
-65
-74
-90
-107
-119
-120
-110
-95
-78
-59
-39
-22
-5
14
32
49
66
78
83
82
80
76
70
63
55
44
30
21
18
15
2
-13
-23
-25
-27
-31
-30
-27
-25
-22
-12
0
11
19
25
29
27
24
23
19
9
-2
-10
-18
-27
-36
-44
-51
-57
-62
-64
-62
-56
-45
-32
-16
0
14
28
46
72
91
93
85
74
63
54
45
35
24
12
1
-9
-24
-48
-76
-90
-87
-77
-64
-48
-32
-21
-12
0
13
22
29
36
40
40
39
43
50
60
71
71
56
34
8
-19
-42
-54
-56
-52
-49
-49
-48
-44
-42
-43
-42
-39
-38
-31
-10
15
34
45
50
53
47
35
21
6
-7
-12
-11
-8
-5
2
10
16
18
14
5
-5
-12
-11
-10
-9
-5
-1
3
5
1
-4
-9
-9
-3
2
3
0
-1
-4
-13
-24
-30
-28
-23
-17
-10
1
17
33
46
54
58
57
54
49
41
29
18
4
-13
-32
-45
-53
-58
-59
-55
-48
-39
-28
-16
-7
-2
5
18
26
30
31
28
23
20
22
24
23
23
30
42
49
42
25
6
-9
-18
-29
-48
-67
-72
-69
-64
-61
-57
-49
-42
-33
-21
-6
10
26
44
59
66
64
58
46
31
18
12
10
11
13
13
8
2
-1
-1
-1
-6
-10
-9
-7
-8
-8
-10
-16
-23
-21
-10
2
13
22
25
23
18
6
-9
-21
-25
-28
-38
-49
-53
-47
-38
-30
-24
-21
-18
-13
-3
10
23
34
44
51
52
47
41
34
24
10
4
9
18
27
33
28
12
0
-1
1
2
0
-3
-8
-18
-27
-31
-33
-32
-26
-16
-6
-2
-4
-5
-6
-8
-11
-14
-15
-13
-7
-4
-6
-14
-17
-15
-13
-9
0
8
14
19
23
23
24
29
35
40
38
31
26
22
16
13
10
6
0
-8
-26
-44
-53
-55
-57
-58
-52
-40
-28
-18
-7
1
6
11
21
34
40
39
33
26
15
6
0
-7
-14
-19
-18
-17
-18
-17
-10
-1
7
18
26
26
22
21
19
14
10
10
11
12
11
10
7
3
0
-1
-6
-12
-14
-16
-20
-23
-25
-24
-21
-18
-12
-2
5
9
12
14
14
13
14
18
19
16
11
9
8
6
5
3
-2
-12
-21
-26
-31
-32
-30
-26
-22
-18
-14
-9
-3
2
6
12
22
34
44
47
46
42
37
28
18
8
-2
-14
-21
-26
-36
-50
-60
-59
-53
-45
-33
-16
0
9
17
24
23
20
22
27
30
30
27
22
16
12
13
16
23
30
31
24
12
-1
-12
-24
-35
-43
-47
-44
-42
-39
-27
-12
0
16
33
46
57
58
47
30
11
-4
-19
-38
-51
-50
-43
-40
-45
-48
-43
-34
-22
-10
-3
0
2
5
7
14
26
38
47
51
50
48
46
41
35
28
20
10
-1
-17
-33
-43
-46
-45
-40
-32
-19
-3
9
22
30
31
28
24
23
19
13
6
1
-4
-9
-10
-7
-7
-9
-12
-13
-12
0
27
49
46
29
5
-22
-46
-58
-63
-69
-76
-74
-62
-48
-33
-12
9
28
47
65
77
76
66
53
36
12
-9
-19
-19
-17
-12
-7
0
8
14
15
10
4
2
-1
-9
-10
-3
2
3
-1
-12
-23
-32
-31
-19
-14
-24
-44
-66
-83
-86
-65
-12
56
105
122
122
111
94
75
58
40
13
-25
-59
-79
-90
-99
-106
-107
-99
-85
-67
-46
-15
24
65
99
118
114
93
67
44
30
20
7
-3
-11
-19
-25
-22
-6
20
43
48
38
31
40
54
52
28
-2
-30
-46
-51
-54
-59
-68
-78
-78
-71
-69
-67
-52
-27
-4
7
17
26
28
27
29
34
35
31
32
41
47
41
28
16
6
0
-1
0
1
-1
-5
-13
-24
-26
-15
1
13
16
11
1
-12
-28
-39
-40
-35
-21
0
16
22
21
17
11
6
9
18
21
15
6
-1
-9
-12
-7
2
9
12
10
4
-6
-16
-21
-25
-30
-30
-25
-22
-24
-27
-26
-23
-20
-11
3
15
23
33
43
48
50
54
59
56
43
28
17
11
2
-13
-28
-33
-30
-26
-24
-28
-35
-43
-50
-59
-60
-48
-29
-8
13
24
24
20
20
21
20
19
21
19
10
4
5
4
1
4
10
11
8
2
-1
-2
0
3
8
12
11
8
9
11
19
29
34
30
27
31
39
45
46
39
20
-5
-29
-49
-72
-96
-107
-102
-93
-85
-75
-61
-46
-31
-11
10
26
41
59
75
79
67
50
34
20
7
2
5
9
6
-1
-11
-16
-17
-15
-13
-12
-9
-3
7
20
29
34
31
30
34
33
29
25
20
9
-6
-20
-32
-40
-42
-37
-31
-32
-42
-53
-60
-61
-58
-48
-31
-16
-2
14
38
67
88
95
95
89
74
51
25
0
-24
-45
-59
-63
-59
-54
-51
-50
-42
-26
-10
0
7
14
25
36
46
55
58
58
52
37
19
4
-6
-21
-36
-43
-40
-38
-44
-52
-54
-51
-44
-28
-3
14
19
19
22
31
38
38
34
29
23
23
27
28
24
19
16
13
9
2
-7
-15
-18
-16
-19
-32
-44
-49
-48
-45
-36
-21
-5
1
7
15
19
22
28
38
46
45
38
29
19
5
-6
-14
-16
-13
-10
-9
-11
-16
-21
-24
-22
-15
-7
0
4
10
17
19
15
11
5
-4
-17
-26
-26
-20
-13
-7
-1
3
8
9
5
-3
-11
-13
-11
-7
-4
-3
-1
-2
-3
-2
2
8
15
23
30
37
42
42
34
21
9
2
0
1
5
5
-2
-13
-19
-25
-37
-48
-49
-43
-35
-26
-11
5
21
35
45
44
34
21
9
-2
-11
-14
-12
-10
-11
-11
-9
-12
-19
-23
-21
-16
-14
-7
1
6
9
15
24
32
38
42
42
36
24
13
3
-6
-16
-29
-41
-44
-36
-25
-23
-27
-25
-17
-9
-6
-1
6
12
14
16
18
19
23
30
36
35
30
26
22
15
6
0
-5
-8
-11
-21
-32
-38
-37
-34
-32
-27
-20
-13
-4
0
2
3
5
12
23
29
29
25
21
17
11
5
-1
-6
-2
8
13
5
-11
-21
-21
-17
-16
-14
-9
-6
-4
-1
0
2
7
15
20
20
18
16
16
14
9
3
0
-1
-6
-15
-25
-33
-37
-36
-32
-29
-23
-12
0
8
12
13
12
18
33
42
40
30
22
16
12
9
4
-1
-8
-12
-13
-16
-23
-28
-28
-25
-21
-17
-12
-7
-3
3
10
16
23
30
33
28
17
8
3
-1
-6
-10
-14
-17
-15
-13
-16
-22
-23
-18
-12
-9
-6
-3
1
5
6
7
8
12
22
36
43
44
43
37
25
13
5
-2
-11
-20
-29
-36
-43
-48
-50
-46
-39
-30
-16
0
11
17
21
24
23
24
26
24
20
15
11
8
3
-2
-6
-5
-2
-1
-7
-21
-30
-29
-24
-21
-21
-18
-11
-6
-4
0
2
9
21
34
42
42
38
34
28
15
2
-6
-12
-16
-21
-28
-35
-38
-37
-33
-30
-26
-17
-7
0
6
12
18
26
37
45
46
44
43
41
38
34
29
19
1
-14
-25
-37
-56
-73
-77
-71
-61
-45
-20
4
19
24
25
25
27
34
42
45
39
30
22
14
4
-3
-5
-4
-3
-5
-13
-21
-23
-20
-15
-11
-10
-7
0
5
6
6
5
6
11
20
23
20
13
8
1
-3
-5
-7
-12
-18
-22
-24
-27
-31
-31
-27
-20
-14
-4
6
12
12
10
9
9
14
21
24
21
15
9
4
0
-1
-2
-3
-3
-3
-7
-14
-14
-7
2
9
11
13
16
12
4
-4
-12
-18
-22
-22
-18
-12
-4
7
20
31
33
25
14
2
-8
-17
-24
-26
-24
-17
-10
-4
1
8
16
22
25
24
21
21
22
22
20
15
10
5
3
2
0
-4
-8
-11
-15
-24
-35
-39
-36
-32
-32
-33
-32
-30
-26
-16
-1
13
24
34
38
33
24
19
18
18
17
14
10
3
-6
-17
-26
-28
-26
-22
-17
-12
-8
-5
-3
0
3
8
12
23
38
44
39
29
21
18
15
12
6
-3
-18
-30
-37
-45
-52
-53
-46
-36
-25
-13
-3
0
1
5
11
18
26
36
41
38
33
32
33
32
29
22
11
0
-8
-16
-26
-34
-34
-28
-22
-17
-11
-2
6
13
20
23
22
24
27
26
16
4
-5
-15
-27
-38
-42
-43
-43
-38
-31
-26
-25
-23
-18
-11
-7
-2
4
16
26
35
41
43
43
44
43
40
34
27
20
12
2
-9
-21
-28
-28
-25
-23
-24
-23
-19
-13
-7
-3
0
2
1
0
3
6
10
14
19
25
30
28
22
12
1
-6
-13
-20
-24
-26
-30
-36
-40
-36
-25
-13
0
14
28
40
49
49
38
22
7
-1
-10
-17
-26
-38
-48
-52
-49
-43
-32
-17
-5
-1
-4
-4
2
12
23
36
46
47
42
37
30
22
16
14
13
6
-4
-10
-12
-12
-13
-14
-13
-11
-6
-2
-3
-7
-9
-7
-2
3
6
9
12
10
6
3
3
8
15
20
20
15
10
5
2
0
0
-2
-8
-16
-23
-28
-34
-39
-36
-28
-22
-17
-7
1
2
3
9
17
23
29
35
39
39
36
30
23
13
3
-1
-1
-2
-10
-27
-44
-48
-44
-46
-50
-49
-40
-27
-18
-13
-6
3
15
28
40
47
47
45
38
27
16
12
9
3
-2
-5
-9
-13
-16
-17
-19
-23
-25
-21
-10
-1
0
0
1
3
6
12
16
17
16
16
14
10
4
-2
-9
-13
-13
-16
-20
-22
-19
-15
-13
-11
-4
6
16
25
30
30
30
34
40
40
35
29
23
14
3
-7
-16
-24
-30
-36
-42
-48
-52
-46
-34
-21
-6
10
29
41
43
38
31
23
19
18
14
6
-2
-12
-22
-30
-33
-31
-22
-11
-3
-3
-9
-15
-17
-14
-9
-6
-1
6
10
10
5
-2
-8
-5
2
6
3
0
0
3
4
7
9
8
4
4
2
-6
-17
-18
-9
7
24
32
31
23
10
0
-7
-7
-2
5
11
11
14
21
26
25
19
10
-2
-17
-28
-34
-36
-37
-40
-42
-42
-38
-30
-20
-15
-12
-7
1
13
28
42
54
63
66
60
49
37
25
12
0
-8
-8
-10
-23
-43
-54
-50
-40
-29
-13
1
13
18
22
28
30
30
29
26
19
11
5
0
-11
-27
-39
-44
-45
-44
-43
-44
-43
-37
-25
-12
-3
3
11
18
20
18
18
20
24
30
33
31
28
24
17
9
5
3
3
6
8
8
0
-14
-30
-39
-40
-38
-35
-27
-16
-9
-7
-4
1
12
25
37
46
49
52
59
65
61
44
22
2
-12
-25
-41
-51
-49
-38
-31
-34
-40
-39
-35
-32
-32
-31
-29
-25
-17
-10
-5
-3
-1
0
3
7
9
10
13
19
22
20
15
13
19
27
33
38
45
52
53
53
52
50
45
38
28
15
0
-18
-33
-41
-44
-48
-55
-63
-63
-57
-50
-45
-41
-34
-27
-20
-10
5
28
51
71
79
73
61
46
29
13
1
-5
-11
-18
-23
-26
-32
-40
-48
-56
-61
-65
-63
-55
-45
-34
-22
-7
14
30
36
39
43
48
55
60
59
55
50
48
47
43
35
23
11
6
8
9
4
-7
-23
-39
-57
-75
-80
-74
-69
-62
-54
-49
-47
-42
-35
-29
-22
-8
7
19
25
27
28
31
38
44
45
40
34
30
27
29
36
44
57
75
84
78
61
46
37
31
22
5
-17
-43
-62
-71
-74
-73
-68
-62
-55
-54
-62
-72
-71
-59
-45
-32
-13
6
19
25
28
32
38
45
51
54
60
72
82
82
70
48
24
5
-7
-22
-45
-67
-78
-79
-79
-80
-79
-75
-68
-61
-54
-44
-33
-22
-1
30
56
68
73
79
90
103
114
114
101
79
54
30
8
-13
-33
-46
-54
-61
-67
-72
-76
-77
-75
-73
-65
-50
-31
-11
9
32
49
56
56
49
36
22
16
15
9
-2
-13
-11
-4
0
1
4
12
21
24
20
15
9
7
6
2
0
0
0
-2
-6
-9
-10
-12
-12
-8
-5
-6
-8
-9
-6
-5
-6
-6
-4
-1
-2
-5
-4
4
23
38
43
38
26
15
6
3
4
5
2
-2
-5
-10
-22
-37
-44
-42
-39
-36
-25
-12
-3
-3
-10
-23
-33
-36
-32
-29
-31
-32
-31
-26
-20
-8
6
19
31
41
40
27
13
6
6
8
12
18
24
28
27
25
23
20
13
6
0
-7
-11
-11
-10
-6
1
10
18
27
35
35
29
19
13
14
19
21
20
20
23
22
16
9
7
10
14
14
9
2
-4
-11
-19
-29
-36
-39
-37
-32
-28
-27
-25
-20
-15
-10
-4
-1
-2
-4
-5
-3
-2
-1
1
4
2
-5
-12
-17
-23
-31
-37
-38
-38
-42
-50
-57
-60
-58
-49
-35
-18
-3
13
32
48
56
62
71
86
104
115
117
113
106
94
75
53
29
5
-14
-28
-37
-50
-71
-89
-97
-100
-100
-98
-90
-77
-64
-51
-37
-25
-14
3
28
51
63
61
55
46
37
32
32
31
27
19
8
-2
-13
-20
-22
-21
-18
-11
0
14
26
34
37
38
42
46
46
42
37
28
14
-2
-20
-36
-52
-65
-69
-70
-72
-72
-66
-55
-44
-34
-23
-12
-3
3
13
29
40
48
61
75
83
82
76
64
47
26
6
-9
-20
-27
-35
-43
-51
-56
-58
-61
-62
-59
-52
-45
-40
-32
-26
-20
-7
10
26
35
41
48
53
53
49
43
37
33
30
28
25
22
22
25
27
24
19
13
9
7
4
0
-3
-2
2
3
-3
-14
-22
-27
-33
-33
-29
-28
-30
-35
-45
-56
-63
-62
-55
-45
-30
-10
7
18
26
36
46
54
61
63
56
44
32
19
1
-15
-25
-31
-41
-56
-64
-61
-53
-40
-16
13
37
45
36
24
20
23
31
40
42
41
40
41
33
17
0
-13
-26
-41
-63
-83
-95
-99
-99
-98
-91
-74
-49
-22
-2
11
25
45
66
77
74
70
73
84
95
97
89
78
68
56
43
32
21
12
6
2
-6
-19
-30
-35
-31
-20
-13
-13
-18
-21
-21
-17
-14
-6
0
0
-10
-27
-43
-50
-53
-54
-50
-45
-41
-35
-25
-14
-10
-14
-16
-13
-7
-1
3
10
25
47
62
65
61
57
53
48
46
44
38
23
4
-10
-16
-10
1
4
-10
-35
-62
-87
-103
-106
-103
-98
-90
-77
-62
-43
-20
7
29
41
45
44
41
37
33
30
29
28
27
31
32
22
8
5
13
27
43
61
73
77
81
84
79
68
59
58
56
42
20
0
-19
-41
-65
-83
-91
-93
-99
-112
-124
-129
-128
-118
-99
-72
-41
-7
28
52
60
62
66
71
74
74
68
58
46
38
32
27
18
3
-9
-16
-22
-34
-53
-66
-66
-57
-40
-14
10
29
42
50
53
53
54
56
55
46
33
23
23
33
46
48
34
14
-5
-21
-30
-32
-34
-33
-29
-28
-29
-32
-40
-52
-64
-74
-82
-85
-84
-78
-69
-61
-47
-27
-10
1
12
18
19
16
12
5
-1
-4
-2
2
8
15
25
37
48
56
61
63
63
61
57
48
43
48
54
47
33
22
19
20
21
19
8
-5
-16
-24
-30
-35
-36
-32
-24
-14
-9
-11
-14
-15
-11
-7
-5
-3
-2
-4
-10
-17
-23
-30
-38
-39
-34
-29
-26
-22
-13
0
11
23
32
36
37
35
40
54
65
67
64
53
29
2
-15
-29
-47
-74
-97
-108
-110
-113
-118
-117
-107
-89
-68
-48
-29
-12
1
12
23
33
44
58
74
93
111
124
131
133
127
116
100
73
39
12
-3
-18
-33
-40
-38
-33
-30
-26
-19
-11
-4
-1
-1
0
1
6
11
9
0
-11
-21
-27
-29
-25
-21
-22
-24
-29
-36
-40
-38
-30
-20
-10
-2
1
8
20
34
37
29
21
18
18
15
13
12
8
-2
-15
-22
-25
-26
-24
-25
-32
-42
-46
-40
-31
-26
-25
-24
-20
-9
2
14
27
44
57
61
59
57
59
65
68
61
45
26
12
1
-6
-15
-24
-29
-33
-36
-37
-28
-8
6
3
-13
-29
-41
-49
-52
-52
-54
-56
-52
-39
-20
-7
-2
-5
-14
-24
-30
-32
-31
-28
-23
-12
4
28
56
78
87
91
94
99
112
126
129
117
94
68
47
27
7
-15
-41
-63
-75
-80
-84
-88
-82
-65
-43
-21
-6
-3
-6
-5
1
5
4
6
15
25
23
11
0
-8
-13
-16
-16
-14
-16
-24
-37
-50
-58
-51
-28
-3
7
4
-4
-5
-1
0
-2
-6
-9
-7
0
6
10
12
13
14
12
4
-7
-12
-12
-12
-12
-9
0
18
40
56
63
62
59
58
56
47
41
43
48
42
24
8
6
13
20
23
18
4
-14
-31
-46
-60
-75
-89
-100
-109
-111
-103
-93
-83
-69
-53
-38
-26
-14
0
12
23
33
43
56
69
79
86
84
73
58
47
39
28
15
6
3
0
-2
-8
-15
-16
-17
-21
-25
-26
-18
-5
5
7
5
6
12
19
23
25
26
27
26
16
-1
-17
-26
-33
-42
-48
-46
-39
-26
-7
5
8
6
3
0
-5
-8
-5
4
14
17
15
11
2
-7
-17
-27
-39
-46
-44
-33
-21
-9
4
23
39
43
37
28
23
27
35
41
44
44
42
35
25
16
9
0
-10
-19
-27
-40
