emg_value
13
15
24
38
43
37
27
19
14
4
-5
-12
-18
-27
-32
-33
-34
-38
-39
-34
-26
-19
-10
4
18
24
27
28
27
26
29
31
27
21
17
16
15
10
2
-2
-6
-9
-15
-22
-26
-23
-17
-11
-10
-10
-7
-2
3
10
12
11
13
12
7
2
1
0
-1
-1
-2
-4
-6
-5
-1
2
0
-6
-10
-10
-9
-10
-13
-14
-9
-2
1
3
6
12
21
24
19
13
9
7
7
6
3
2
3
1
-4
-11
-20
-29
-31
-27
-23
-19
-13
-5
-1
0
2
6
10
16
21
21
17
13
13
12
7
3
0
0
0
-1
-5
-12
-22
-27
-25
-23
-19
-11
-6
-3
-1
0
0
2
8
14
14
11
9
10
14
19
20
20
21
20
15
5
-5
-15
-23
-28
-30
-29
-27
-24
-21
-14
-4
4
11
19
27
31
28
23
21
23
24
22
15
7
5
6
2
-7
-14
-16
-16
-18
-21
-22
-17
-10
-5
-5
-6
-1
8
14
13
11
10
9
7
4
2
2
0
-2
-4
-8
-16
-25
-29
-25
-18
-13
-9
-5
0
5
10
12
15
20
23
23
19
15
14
14
11
7
4
2
2
5
0
-15
-24
-21
-12
-9
-12
-14
-13
-13
-13
-12
-9
-6
0
8
13
13
10
5
4
2
-3
-7
-7
-4
-2
-4
-7
-9
-9
-6
-3
-2
0
7
13
15
17
19
21
23
23
19
14
8
0
-8
-13
-16
-21
-27
-30
-28
-27
-28
-29
-25
-16
-8
-1
5
13
20
24
29
36
40
43
44
41
31
21
14
10
1
-11
-21
-26
-30
-33
-36
-40
-41
-38
-31
-22
-16
-9
-2
5
14
21
23
23
25
31
35
32
26
21
17
13
9
5
4
5
8
8
2
-9
-21
-28
-31
-34
-36
-35
-33
-28
-23
-19
-17
-12
-2
7
12
15
21
25
25
20
15
11
9
8
6
-1
-9
-9
-5
-1
0
3
10
16
19
19
16
14
14
15
17
14
8
2
-7
-17
-24
-27
-31
-37
-41
-42
-42
-40
-36
-27
-20
-14
-4
10
27
37
40
40
38
33
29
28
28
25
20
15
10
3
-6
-17
-23
-24
-25
-31
-40
-42
-34
-25
-17
-8
3
14
21
24
22
18
18
22
27
25
18
13
12
10
2
-4
-8
-12
-17
-20
-22
-24
-24
-18
-8
-2
1
5
10
13
15
19
24
30
35
35
28
20
12
6
1
-5
-13
-18
-21
-23
-26
-31
-37
-39
-35
-27
-21
-15
-10
-6
-4
0
4
8
13
20
25
27
28
27
27
24
17
7
0
-5
-10
-13
-17
-21
-21
-17
-12
-9
-6
-1
3
9
16
20
19
16
17
22
27
26
19
10
0
-11
-20
-25
-31
-37
-39
-39
-39
-41
-40
-33
-24
-12
7
31
44
43
36
27
20
19
21
21
14
4
0
0
0
-5
-12
-18
-21
-19
-16
-16
-15
-10
0
10
16
20
21
15
8
2
0
3
9
13
15
12
6
3
4
8
12
18
20
15
4
-7
-18
-24
-27
-26
-19
-7
-1
-1
-6
-12
-17
-22
-25
-23
-17
-12
-12
-13
-10
-5
-2
-2
-2
-1
0
4
7
6
1
1
6
11
11
11
13
16
18
20
24
26
29
31
29
23
16
13
14
16
14
11
7
0
-9
-17
-24
-28
-30
-31
-34
-36
-33
-27
-22
-18
-12
-7
-4
3
18
31
33
30
26
24
19
10
0
-6
-14
-20
-20
-21
-26
-32
-32
-26
-21
-17
-11
-4
2
9
14
16
19
24
29
29
26
25
31
36
33
23
10
-4
-15
-21
-26
-30
-34
-33
-29
-27
-26
-22
-16
-10
-3
2
7
11
19
27
30
28
25
25
25
21
15
8
0
-7
-11
-14
-19
-22
-20
-16
-11
-9
-8
-5
-2
2
7
9
12
16
20
21
20
18
19
17
11
4
-5
-15
-19
-19
-21
-29
-34
-33
-26
-19
-14
-10
-6
0
11
23
28
28
25
25
27
30
36
41
40
29
13
1
-8
-22
-39
-52
-59
-60
-58
-55
-52
-49
-42
-33
-24
-17
-12
-8
-1
13
32
44
48
46
43
39
34
29
23
15
8
3
0
-8
-16
-19
-18
-18
-18
-14
-9
-3
3
11
18
24
29
33
38
41
39
37
36
35
33
31
26
18
8
-4
-18
-30
-36
-39
-44
-46
-45
-43
-41
-39
-36
-31
-26
-18
-7
0
-3
-7
-6
-4
-3
-2
0
4
5
7
8
10
13
20
29
36
36
30
21
14
11
13
14
11
7
4
-3
-17
-29
-32
-28
-27
-29
-28
-24
-19
-13
-9
-5
0
4
9
11
11
9
8
7
6
5
4
5
4
6
15
24
28
27
25
19
13
10
10
9
6
-1
-13
-25
-33
-36
-38
-40
-42
-40
-36
-29
-21
-12
-7
-3
2
11
17
22
30
37
36
28
21
20
22
26
27
21
9
0
-3
-4
-5
-8
-10
-8
-6
-4
-3
-4
-1
6
17
22
20
16
14
7
-4
-12
-14
-15
-15
-14
-18
-25
-30
-29
-25
-20
-14
-9
-4
2
9
14
14
17
29
38
39
33
24
14
1
-10
-16
-19
-25
-30
-30
-31
-34
-34
-29
-23
-20
-17
-10
-3
3
12
28
47
60
66
67
58
41
23
13
6
-4
-19
-30
-35
-38
-42
-47
-53
-56
-55
-49
-38
-25
-14
-7
0
12
27
41
52
64
79
83
74
59
41
23
6
-7
-16
-26
-32
-32
-29
-29
-32
-35
-34
-32
-32
-32
-31
-30
-28
-23
-15
-3
8
17
21
18
13
10
7
4
3
5
5
7
12
17
17
15
18
24
26
23
21
24
26
27
29
29
28
30
34
36
30
19
10
0
-16
-33
-42
-49
-57
-62
-63
-61
-60
-61
-59
-53
-47
-38
-25
-6
13
32
44
52
58
62
61
53
43
34
24
13
1
-12
-27
-36
-38
-36
-39
-46
-48
-42
-32
-22
-10
0
6
11
20
34
49
63
78
93
102
97
81
61
33
0
-25
-38
-44
-49
-61
-73
-76
-72
-66
-63
-61
-55
-48
-42
-36
-29
-21
-13
-1
16
31
37
35
35
38
40
37
35
34
24
11
0
-9
-21
-32
-40
-46
-50
-51
-47
-40
-30
-19
-9
0
8
19
30
38
48
60
71
73
65
55
44
35
29
22
9
-2
-8
-7
-2
4
11
19
26
35
42
44
40
36
33
27
13
-5
-21
-35
-52
-67
-71
-68
-66
-66
-63
-61
-60
-58
-51
-39
-25
-12
2
19
36
46
50
47
42
38
35
28
18
11
10
9
4
-2
-10
-15
-16
-16
-19
-27
-29
-25
-19
-13
-5
4
15
25
32
34
30
24
20
18
15
11
4
-2
-11
-26
-39
-44
-45
-45
-41
-37
-35
-34
-28
-17
-8
-3
0
6
14
20
26
30
36
47
59
67
71
71
67
56
44
33
19
1
-12
-20
-26
-35
-44
-46
-39
-33
-35
-41
-47
-50
-49
-46
-38
-26
-11
3
13
17
15
13
8
0
-7
-8
-2
6
12
9
0
-5
-2
7
14
17
20
22
21
15
9
4
2
3
8
9
2
-5
-10
-14
-15
-15
-18
-24
-24
-14
2
14
25
36
43
45
44
41
38
31
26
23
20
18
17
18
14
5
-5
-14
-20
-27
-34
-38
-38
-35
-31
-29
-28
-27
-26
-26
-22
-15
-6
4
14
24
37
44
47
51
55
54
46
33
20
7
-8
-24
-38
-52
-70
-92
-106
-109
-107
-102
-93
-81
-69
-56
-41
-27
-14
1
17
31
43
54
64
69
68
70
72
66
56
48
39
31
26
21
16
13
14
20
27
31
31
29
28
28
31
37
42
42
42
40
31
17
5
-2
-14
-29
-43
-54
-64
-70
-74
-79
-83
-85
-80
-71
-63
-57
-47
-29
-12
-3
0
6
19
35
47
50
50
54
56
52
47
43
37
32
31
33
29
19
9
4
0
0
9
23
24
9
-9
-22
-28
-30
-26
-22
-25
-37
-47
-50
-53
-64
-77
-82
-78
-73
-69
-67
-62
-52
-36
-20
-9
-3
4
14
29
43
50
54
65
82
93
91
81
70
59
46
38
36
42
51
55
49
38
20
0
-14
-22
-27
-33
-38
-39
-38
-36
-32
-28
-27
-23
-16
-8
-2
1
2
2
3
2
-2
-8
-11
-14
-18
-26
-29
-25
-17
-10
-9
-9
-7
-2
5
10
16
24
32
40
44
47
48
41
27
15
6
-2
-11
-23
-30
-34
-36
-40
-42
-41
-38
-36
-32
-25
-15
-6
4
14
23
29
34
38
40
37
31
22
15
9
6
5
6
8
12
14
12
7
3
0
0
2
4
4
2
-2
-13
-22
-25
-24
-21
-24
-26
-23
-20
-22
-24
-19
-7
2
8
9
5
-1
-4
-3
-1
0
0
1
3
4
1
-1
-5
-5
3
11
11
6
1
-4
-10
-14
-17
-26
-34
-32
-25
-20
-15
-3
11
22
26
28
29
30
30
29
27
24
24
25
21
14
9
7
8
5
-1
-8
-12
-12
-8
1
13
18
19
18
14
4
-2
-4
-3
-4
-9
-13
-14
-15
-11
-4
0
-1
-3
-10
-27
-40
-35
-22
-2
21
37
37
27
15
5
-1
-8
-14
-14
-6
1
6
7
7
6
5
0
-6
-16
-27
-34
-39
-43
-47
-51
-55
-54
-49
-44
-44
-39
-24
-3
17
35
51
65
81
97
105
100
87
75
63
44
24
10
3
-9
-30
-44
-49
-49
-44
-37
-30
-28
-29
-28
-25
-21
-14
-2
17
40
53
54
47
38
32
28
23
17
12
7
0
-9
-16
-28
-46
-59
-60
-55
-52
-46
-33
-16
1
13
15
13
13
7
-6
-19
-24
-22
-20
-22
-24
-21
-12
-11
-17
-22
-23
-20
-6
18
39
48
49
54
68
78
73
61
47
31
15
0
-17
-36
-55
-66
-69
-71
-73
-71
-66
-56
-38
-9
23
42
44
39
37
42
51
59
60
56
49
44
41
38
35
30
25
24
26
21
6
-8
-18
-27
-39
-52
-58
-59
-59
-55
-44
-28
-13
-1
7
13
15
17
19
24
32
37
35
29
24
21
15
7
4
10
17
14
2
-9
-20
-33
-45
-55
-66
-76
-80
-78
-74
-69
-59
-40
-19
-1
13
22
27
30
33
36
34
29
29
32
32
29
23
12
1
-5
-8
-6
0
9
18
22
18
11
7
7
10
15
17
15
13
18
26
30
28
25
16
2
-7
-11
-13
-17
-20
-21
-22
-25
-28
-28
-27
-24
-21
-17
-11
-5
1
7
14
25
36
43
47
53
62
66
61
49
27
-5
-35
-55
-70
-86
-104
-113
-108
-99
-88
-72
-52
-35
-27
-24
-22
-15
-2
14
31
46
55
59
58
51
40
31
27
25
22
17
10
2
-1
0
2
5
6
7
14
27
40
44
41
36
38
44
45
40
32
24
17
6
-4
-16
-27
-34
-36
-36
-38
-43
-44
-39
-34
-28
-21
-13
-6
1
11
18
21
25
31
36
38
35
30
35
53
67
67
57
37
8
-20
-45
-63
-75
-84
-87
-80
-69
-62
-62
-63
-61
-57
-52
-40
-27
-21
-18
-11
0
9
17
29
45
55
55
48
37
22
9
0
-4
-9
-17
-23
-26
-24
-17
-4
10
25
40
46
44
43
46
48
50
54
55
47
33
19
7
-6
-20
-29
-33
-34
-36
-36
-31
-23
-13
-3
7
19
29
36
41
39
30
23
21
14
6
4
9
4
-18
-43
-62
-77
-89
-94
-90
-81
-72
-65
-57
-48
-34
-15
2
20
38
56
69
78
86
88
82
74
66
55
41
28
18
9
0
-8
-13
-15
-22
-36
-49
-53
-49
-44
-45
-49
-50
-45
-34
-21
-11
-1
11
23
32
38
39
34
30
28
24
15
5
-2
-6
-7
-5
2
18
30
32
30
26
19
16
16
14
7
-1
-11
-19
-26
-28
-21
-15
-13
-13
-14
-18
-22
-19
-11
-3
4
11
13
11
5
-1
-10
-15
-17
-15
-12
-12
-11
-8
-7
-11
-13
-11
-10
-11
-13
-10
-3
2
5
7
11
18
24
25
25
25
26
27
27
32
39
44
42
36
31
26
22
20
12
-5
-25
-38
-46
-56
-68
-69
-57
-43
-35
-28
-15
0
12
19
19
14
7
1
-11
-33
-51
-56
-57
-55
-43
-24
-6
3
6
8
7
8
13
21
29
33
34
36
39
44
52
62
71
79
82
77
63
47
30
9
-13
-29
-37
-41
-43
-40
-35
-34
-38
-45
-47
-41
-30
-17
-3
7
15
20
20
13
8
11
19
25
32
37
32
18
2
-8
-15
-23
-30
-42
-59
-73
-76
-70
-61
-54
-49
-42
-33
-23
-12
-3
3
15
37
70
96
104
101
89
68
48
33
17
-3
-24
-37
-43
-47
-54
-65
-71
-68
-61
-50
-36
-22
-8
10
34
55
67
72
75
81
85
83
76
67
58
45
25
3
-19
-43
-61
-69
-70
-70
-69
-68
-65
-58
-50
-41
-29
-18
-8
5
23
36
42
47
49
42
32
23
15
14
26
41
49
47
37
27
19
12
0
-19
-41
-57
-64
-67
-70
-72
-66
-59
-53
-48
-39
-28
-16
-2
14
31
44
54
62
59
42
23
11
1
-10
-26
-35
-35
-33
-28
-19
-10
0
13
36
67
89
101
109
106
86
55
28
5
-17
-36
-44
-45
-46
-50
-59
-71
-81
-85
-83
-77
-70
-59
-45
-28
-2
22
35
38
45
55
62
66
68
65
56
44
36
32
29
23
14
8
5
1
-5
-13
-20
-27
-34
-37
-35
-31
-26
-22
-20
-17
-11
-8
-6
-5
-2
-1
0
0
-3
-10
-16
-19
-18
-12
-1
12
26
39
44
40
31
18
4
-6
-15
-22
-29
-34
-35
-28
-10
12
28
28
15
-1
-20
-41
-58
-65
-63
-58
-49
-33
-14
7
30
51
71
87
98
104
100
91
78
63
44
21
-1
-14
-18
-25
-39
-53
-61
-62
-57
-49
-40
-33
-27
-25
-26
-25
-18
-9
2
20
36
46
59
69
62
40
13
-10
-33
-51
-60
-59
-57
-55
-48
-36
-23
-14
-8
-2
2
6
15
28
41
51
56
60
65
74
80
76
57
28
-1
-24
-39
-50
-60
-66
-67
-63
-60
-58
-54
-47
-40
-31
-19
-3
9
17
22
27
34
40
51
65
66
48
26
10
3
0
-5
-11
-18
-27
-33
-32
-25
-19
-14
-6
5
15
19
18
16
17
21
26
26
24
23
19
11
2
-6
-15
-18
-12
-2
-1
-14
-26
-30
-30
-33
-39
-39
-32
-24
-16
-7
-1
1
8
26
52
71
72
58
29
-8
-38
-52
-56
-55
-52
-50
-52
-52
-43
-25
-6
9
24
43
64
78
83
88
96
97
85
61
34
11
-6
-17
-22
-27
-32
-34
-35
-37
-41
-52
-62
-62
-53
-41
-22
4
25
29
28
31
35
32
25
16
6
-1
-2
2
7
5
-14
-42
-64
-75
-77
-72
-65
-53
-37
-16
3
17
25
33
41
52
63
69
68
69
73
73
64
51
37
19
-2
-20
-33
-39
-38
-33
-26
-19
-18
-20
-23
-26
-33
-44
-53
-54
-47
-36
-26
-17
-10
-4
-1
-1
0
3
11
21
27
29
30
29
25
15
-1
-15
-19
-16
-10
-3
5
18
31
48
69
80
73
57
37
11
-11
-27
-36
-43
-43
-35
-24
-16
-11
-8
-2
4
14
27
37
36
33
35
30
8
-16
-33
-40
-44
-49
-48
-43
-37
-33
-31
-29
-23
-11
10
33
40
35
29
21
9
0
-4
-6
-11
-14
-13
-9
-7
-3
8
21
33
44
47
37
23
10
-1
-14
-29
-38
-41
-42
-40
-34
-31
-33
-34
-29
-24
-19
-11
1
12
21
31
42
47
48
48
47
44
41
37
26
9
-5
-12
-17
-17
-14
-10
-8
-8
-9
-11
-10
-5
3
12
18
24
28
21
4
-10
-14
-15
-25
-48
-67
-71
-64
-48
-29
-13
0
13
30
43
46
38
20
3
2
18
33
37
37
37
35
30
21
11
0
-10
-18
-31
-57
-85
-97
-89
-74
-59
-45
-30
-14
-2
7
19
33
49
68
89
100
101
99
90
70
52
48
55
52
28
-1
-20
-31
-46
-67
-87
-103
-112
-113
-109
-101
-89
-71
-41
0
34
52
62
57
33
7
-8
-16
-15
-7
0
4
10
19
33
43
50
54
54
46
34
18
0
-21
-36
-40
-34
-26
-16
-3
8
15
17
7
-15
-34
-37
-32
-29
-26
-22
-17
-12
-4
15
38
50
51
43
31
22
23
31
38
37
32
30
31
32
30
20
9
2
0
-2
-8
-16
-27
-42
-57
-64
-55
-33
-11
-1
-9
-26
-44
-60
-73
-79
-79
-75
-68
-50
-19
13
36
60
87
101
96
84
66
33
-2
-23
-32
-32
-21
-4
10
20
20
9
-2
-1
9
23
35
43
42
31
15
1
-13
-28
-39
-43
-37
-24
-9
5
27
46
45
28
11
-4
-25
-41
-47
-43
-29
-6
15
37
54
65
76
90
94
83
62
46
38
32
19
-3
-35
-66
-91
-112
-126
-131
-126
-118
-113
-100
-71
-34
-3
13
15
9
3
-2
-10
-16
-16
-9
0
9
20
25
25
28
36
46
51
49
46
46
53
57
54
47
29
-2
-28
-34
-29
-32
-46
-60
-62
-52
-28
13
53
76
89
103
116
115
100
83
61
24
-20
-58
-77
-69
-39
-13
-4
-6
-16
-39
-68
-91
-107
-121
-126
-112
-78
-42
-3
45
81
91
90
92
99
96
76
50
22
-8
-33
-46
-48
-40
-24
-13
-11
-14
-18
-25
-36
-48
-52
-33
6
40
51
40
20
4
4
12
14
4
-6
-12
-17
-22
-19
-10
-5
-5
-7
-5
10
29
40
39
31
22
18
19
19
18
20
24
30
29
16
0
-12
-23
-32
-48
-78
-102
-102
-86
-57
-9
42
84
108
111
91
48
0
-38
-72
-102
-117
-113
-98
-69
-16
43
88
114
130
144
147
129
89
24
-43
-90
-113
-120
-112
-91
-71
-57
-39
-9
35
75
92
86
66
46
41
47
51
53
50
40
18
-11
-55
-110
-144
-145
-131
-111
-80
-36
12
51
63
53
39
33
35
44
59
71
66
47
32
28
24
7
-18
-44
-63
-74
-74
-63
-45
-29
-23
-18
-4
12
15
5
-7
-19
-28
-25
-12
6
25
42
55
59
54
53
64
77
79
71
57
34
5
-22
-43
-58
-72
-89
-97
-81
-48
-18
2
18
32
41
46
55
57
43
29
24
14
-13
-49
-82
-110
-124
-121
-107
-83
-48
-8
29
57
70
74
72
62
43
17
-8
-26
-33
-36
-30
-4
34
65
80
87
91
90
78
62
41
16
-7
-24
-31
-31
-34
-34
-24
-7
2
-7
-27
-38
-40
-47
-68
-89
-96
-82
-42
11
43
46
35
15
-19
-56
-77
-82
-79
-64
-31
17
71
120
149
143
113
83
57
29
5
-7
-11
-16
-24
-26
-17
-4
0
-12
-26
-34
-37
-48
-69
-91
-102
-99
-77
-41
-2
34
66
86
96
95
91
85
81
91
134
193
221
195
130
60
-2
-74
-169
-280
-358
-381
-363
-295
-175
-48
49
115
147
145
120
96
79
60
47
52
65
70
61
44
28
14
-11
-53
-88
-102
-99
-86
-63
-28
8
37
62
95
121
123
101
66
28
0
-18
-31
-38
-39
-25
3
32
53
61
45
6
-38
-85
-133
-161
-153
-110
-49
15
68
101
114
99
55
16
3
9
5
-26
-65
-87
-87
-81
-82
-73
-44
-11
19
53
85
102
98
77
51
26
3
-15
-27
-28
-12
13
32
44
58
68
69
65
54
29
-3
-41
-75
-92
-87
-69
-60
-72
-98
-119
-119
-98
-63
-9
54
95
99
92
97
111
116
108
94
81
66
46
20
-10
-51
-97
-120
-111
-86
-66
-62
-62
-59
-43
-15
6
8
-1
-8
0
20
44
62
70
76
89
107
122
119
87
34
-26
-89
-149
-194
-207
-192
-173
-140
-74
-1
49
80
90
78
63
66
81
90
86
73
58
45
31
13
3
7
16
34
64
78
60
24
-13
-43
-62
-74
-81
-83
-86
-87
-74
-41
17
91
132
118
74
21
-39
-99
-149
-190
-213
-206
-165
-100
-22
57
126
156
143
102
50
4
-14
-4
13
43
88
125
136
126
95
45
2
-18
-25
-30
-32
-17
16
44
45
22
-1
-17
-36
-61
-59
-18
26
37
14
-25
-56
-64
-73
-97
-120
-129
-131
-110
-50
26
78
87
55
-3
-59
-90
-99
-92
-65
-23
17
43
60
78
90
89
78
76
93
112
114
109
105
99
86
64
34
-3
-44
-77
-91
-91
-77
-54
-32
0
66
151
199
179
118
47
-41
-143
-215
-250
-269
-267
-227
-149
-57
15
50
51
29
-3
-27
-33
-21
-1
20
43
71
98
104
98
95
99
107
101
73
34
-4
-36
-55
-62
-64
-62
-59
-44
-4
45
78
73
41
4
-22
-28
-16
-6
-7
-4
18
41
46
37
28
29
35
31
11
-28
-83
-124
-131
-109
-64
-15
1
-16
-32
-24
-3
16
40
70
94
102
94
73
42
-7
-71
-116
-133
-142
-150
-153
-134
-86
-18
49
103
136
144
139
128
113
94
72
45
22
6
-2
-5
-4
10
37
49
35
7
-35
-86
-113
-98
-64
-31
2
27
29
9
-11
-19
-15
-14
-29
-54
-73
-74
-59
-21
54
146
190
164
89
-7
-84
-128
-153
-168
-168
-144
-100
-44
32
124
186
194
165
122
79
50
32
21
21
28
33
36
37
34
26
11
-14
-53
-100
-143
-164
-163
-157
-161
-172
-171
-142
-87
-15
53
89
98
105
111
107
96
86
78
72
65
53
37
24
19
22
22
19
19
26
32
26
6
-20
-44
-61
-65
-57
-40
-14
15
38
49
53
52
48
39
29
25
23
15
8
3
-8
-35
-71
-95
-105
-104
-81
-32
16
42
45
34
19
7
1
-6
-21
-41
-53
-48
-23
16
59
103
135
123
55
-32
-106
-156
-188
-208
-209
-189
-149
-65
71
189
228
203
141
67
6
-32
-54
-60
-55
-41
-22
-1
24
57
80
85
74
57
40
30
28
28
31
38
48
56
57
47
25
-1
-22
-39
-54
-66
-66
-57
-45
-27
-8
0
-1
0
2
-2
-10
-16
-19
-22
-23
-21
-19
-19
-12
2
9
6
0
-4
-6
-11
-14
-13
-8
0
5
8
10
8
5
2
-2
-7
-13
-18
-18
-10
0
10
20
29
34
36
34
31
31
33
34
30
19
4
-9
-21
-34
-49
-55
-49
-41
-37
-34
-29
-21
-18
-12
9
38
55
62
71
82
78
56
28
-3
-43
-79
-98
-102
-93
-69
-42
-23
-12
-4
-1
2
14
35
60
80
87
80
65
52
46
42
34
21
6
-9
-16
-15
-15
-20
-34
-50
-57
-58
-59
-64
-60
-44
-22
0
25
42
49
48
37
21
6
-1
-2
-6
-15
-26
-29
-24
-16
-12
-11
-9
-7
-3
0
0
-2
-1
6
15
18
16
13
8
0
-2
2
9
20
34
44
43
37
25
5
-16
-31
-36
-35
-35
-34
-29
-26
-23
-13
4
18
21
17
7
-4
-10
-12
-11
-6
5
22
35
40
37
29
25
23
18
12
7
1
-4
-11
-17
-24
-26
-26
-21
-13
-7
-4
-2
0
6
15
19
16
12
9
6
1
-6
-14
-18
-17
-14
-11
-8
-5
0
0
-5
-9
-8
-4
-4
-4
-2
-1
-2
-3
-2
-5
-10
-12
-9
-5
-1
3
10
15
13
3
-6
-11
-9
-4
-1
-5
-10
-13
-12
-5
4
14
24
32
40
45
46
44
40
36
32
26
17
4
-8
-16
-19
-22
-26
-29
-31
-33
-37
-42
-46
-46
-44
-37
-24
-6
6
15
22
22
15
8
6
3
-3
-12
-18
-19
-20
-17
-7
1
5
7
9
10
7
6
6
4
6
11
16
20
23
25
24
22
22
25
29
30
26
20
18
15
9
4
-2
-9
-16
-24
-32
-36
-35
-33
-29
-25
-20
-14
-10
-5
-1
2
5
8
13
18
19
18
15
9
0
-8
-11
-12
-14
-17
-17
-18
-20
-18
-9
1
12
21
26
24
19
16
16
17
24
34
38
34
22
6
-5
-17
-30
-40
-46
-48
-46
-46
-47
-41
-26
-8
2
0
-5
-5
-2
1
9
19
31
43
55
63
61
50
37
25
11
-3
-14
-22
-32
-42
-46
-42
-35
-24
-7
7
15
17
15
9
1
-4
-5
-2
1
7
12
14
12
10
9
8
6
4
2
0
-2
-1
-5
-14
-19
-18
-13
-11
-10
-8
-4
0
2
6
8
11
15
18
16
11
9
8
6
1
-6
-13
-17
-19
-20
-22
-25
-25
-22
-16
-10
-6
-3
0
4
8
12
14
17
22
27
27
23
19
14
7
1
-2
-6
-13
-20
-21
-18
-17
-16
-12
-4
4
11
15
14
10
5
0
-5
-13
-16
-11
-4
1
8
14
19
20
19
20
21
20
18
9
-8
-25
-32
-32
-33
-37
-37
-30
-21
-8
13
33
43
46
46
42
34
25
19
15
10
5
-1
-12
-25
-40
-48
-49
-45
-37
-27
-18
-15
-14
-12
-8
-2
5
14
23
33
42
44
41
32
20
10
4
0
-4
-10
-14
-14
-12
-13
-19
-21
-18
-15
-14
-13
-9
-5
-1
3
9
11
13
17
18
17
14
10
7
4
2
3
4
4
2
1
0
1
6
13
15
8
0
-7
-14
-20
-25
-27
-26
-19
-6
3
4
3
4
8
9
7
6
2
-4
-12
-18
-26
-36
-45
-45
-36
-26
-13
2
14
20
23
25
26
27
28
31
31
26
22
20
16
12
9
7
6
8
11
5
-6
-16
-20
-20
-20
-19
-17
-13
-9
-7
-5
-4
0
6
18
24
25
27
29
30
26
20
14
4
-6
-18
-29
-37
-44
-47
-48
-45
-40
-33
-22
-7
6
21
33
43
47
49
49
44
36
27
14
0
-13
-28
-41
-46
-46
-49
-56
-55
-43
-29
-22
-14
0
13
23
27
27
27
26
28
35
46
58
69
73
62
38
16
0
-14
-32
-49
-62
-69
-68
-63
-58
-51
-36
-18
1
16
22
22
23
30
42
48
46
35
18
1
-9
-17
-23
-28
-34
-38
-35
-26
-17
-13
-6
4
13
18
23
28
30
28
23
15
7
4
6
7
3
0
0
1
1
-1
-3
-4
-3
0
6
11
14
16
19
23
23
19
13
2
-10
-23
-35
-43
-48
-47
-41
-36
-35
-32
-16
8
29
37
34
23
8
-5
-16
-26
-31
-28
-19
-14
-14
-14
-14
-14
-11
-6
2
17
36
52
61
58
47
36
28
23
25
34
41
43
38
22
-4
-28
-40
-46
-52
-60
-63
-57
-49
-42
-35
-30
-23
-11
2
12
17
21
27
31
30
26
23
20
15
7
-1
-9
-13
-12
-8
-4
0
3
7
8
8
10
10
11
15
20
21
17
9
5
3
1
1
0
-3
-3
1
8
15
23
26
21
7
-8
-24
-32
-34
-35
-35
-32
-27
-21
-9
7
23
27
20
7
-8
-24
-32
-32
-29
-28
-33
-45
-54
-56
-52
-44
-33
-20
-8
5
22
45
65
75
81
82
77
64
46
30
17
6
-1
-7
-14
-19
-18
-15
-12
-9
-8
-8
-9
-10
-7
-1
6
15
20
19
18
19
20
17
6
-1
-1
-4
-12
-21
-29
-33
-34
-33
-31
-32
-32
-28
-21
-13
-5
4
16
25
32
36
37
36
39
46
50
50
46
39
27
12
-1
-13
-23
-35
-44
-50
-56
-61
-63
-61
-55
-48
-39
-27
-16
-8
0
15
35
57
79
94
95
85
73
61
43
17
-15
-45
-63
-69
-74
-87
-98
-97
-88
-77
-70
-63
-53
-40
-23
-1
16
26
36
60
98
121
122
115
105
88
67
48
32
13
-8
-27
-41
-51
-59
-67
-71
-70
-65
-57
-45
-31
-17
-3
9
26
43
55
59
58
57
53
47
41
34
24
15
8
3
-5
-17
-26
-28
-26
-25
-25
-22
-17
-14
-13
-12
-10
-4
7
20
23
18
16
17
21
24
24
18
9
0
-15
-34
-50
-59
-62
-63
-60
-54
-45
-31
-15
0
9
18
32
51
60
55
42
29
15
2
-9
-17
-24
-31
-38
-41
-42
-43
-47
-47
-42
-36
-28
-15
0
12
23
32
41
50
61
71
73
67
61
56
50
37
23
10
-1
-11
-17
-25
-31
-33
-29
-20
-8
1
8
13
21
29
32
27
21
16
9
-2
-15
-24
-29
-36
-40
-42
-43
-45
-45
-44
-41
-38
-32
-19
-3
13
32
48
57
56
49
42
32
20
15
15
12
2
-10
-19
-25
-32
-36
-39
-41
-39
-35
-33
-32
-29
-21
-12
-1
8
16
22
26
30
31
30
29
32
49
73
88
91
87
72
48
27
14
3
-14
-37
-54
-63
-68
-73
-78
-82
-81
-79
-79
-81
-81
-76
-71
-60
-38
-16
-2
5
12
24
33
38
44
47
47
45
42
39
33
25
22
23
25
23
23
24
26
28
31
33
34
38
49
68
84
90
86
74
52
26
2
-14
-29
-47
-68
-88
-100
-104
-105
-109
-111
-105
-93
-76
-56
-36
-18
-2
19
53
82
101
117
133
141
130
106
80
49
15
-13
-34
-54
-77
-101
-112
-108
-98
-82
-55
-28
-12
-10
-16
-25
-29
-24
-17
-12
-6
2
10
12
7
-2
-12
-18
-22
-22
-21
-17
-8
4
17
32
44
54
62
69
77
79
76
72
72
73
71
66
60
52
42
31
20
10
-1
-13
-21
-28
-40
-54
-66
-72
-72
-66
-54
-39
-30
-27
-26
-26
-25
-17
-5
1
2
0
-7
-13
-21
-29
-37
-40
-38
-33
-24
-5
21
43
54
53
46
40
34
27
18
5
-9
-18
-18
-14
-12
-12
-11
-10
-17
-33
-47
-53
-55
-53
-44
-34
-25
-15
3
25
38
42
45
48
51
53
53
51
50
59
73
78
71
57
40
24
12
3
-6
-19
-31
-36
-39
-45
-53
-55
-53
-53
-54
-52
-47
-42
-34
-23
-11
-1
9
21
33
39
39
39
39
36
31
26
21
16
12
8
2
-3
-4
-2
-1
-4
-6
-6
-3
0
5
12
17
24
32
33
25
14
5
-1
-6
-11
-18
-31
-46
-57
-61
-64
-69
-71
-67
-59
-54
-49
-41
-31
-18
-6
7
23
45
68
82
84
80
76
72
67
58
45
28
12
-1
-19
-43
-60
-67
-68
-72
-81
-87
-86
-74
-53
-26
-3
11
27
47
61
63
58
53
50
47
43
36
30
24
18
12
4
-4
-11
-14
-12
-6
0
11
26
38
42
42
39
37
36
29
14
-2
-14
-22
-28
-34
-40
-48
-54
-53
-51
-51
-55
-52
-43
-32
-21
-9
1
11
19
28
40
50
60
75
88
84
66
47
28
8
-14
-30
-37
-40
-39
-30
-19
-14
-17
-27
-43
-57
-65
-69
-75
-78
-74
-67
-60
-49
-33
-21
-18
-21
-19
-12
-8
-5
2
16
28
39
50
60
67
71
75
76
75
72
71
72
77
88
100
101
92
81
72
56
35
18
5
-11
-34
-55
-71
-83
-94
-104
-111
-112
-108
-100
-88
-76
-65
-54
-40
-23
-5
12
33
62
94
113
116
108
92
72
52
37
26
14
0
-12
-24
-38
-57
-80
-95
-100
-101
-104
-105
-102
-93
-81
-66
-48
-27
0
27
46
55
58
58
59
61
63
64
64
64
67
67
60
50
41
34
23
11
3
-3
-10
-12
-12
-12
-11
-7
-5
-9
-17
-22
-23
-20
-14
-4
9
25
41
46
39
23
2
-14
-22
-24
-24
-26
-32
-37
-40
-43
-45
-48
-47
-40
-36
-39
-44
-46
-40
-32
-21
0
27
56
81
94
87
69
54
44
38
28
17
7
-2
-13
-21
-27
-29
-22
-11
-7
-12
-19
-20
-19
-21
-24
-23
-22
-19
-16
-13
-13
-15
-13
-7
-1
1
3
6
10
19
27
29
30
39
51
56
51
45
46
50
49
43
34
24
15
10
5
-2
-14
-21
-23
-24
-28
-34
-36
-35
-35
-34
-33
-33
-31
-26
-26
-34
-41
-39
-31
-26
-24
-25
-25
-23
-18
-9
0
9
24
49
82
104
109
101
83
60
39
22
7
-4
-12
-21
-35
-53
-69
-85
-94
-94
-87
-77
-65
-52
-37
-24
-12
-2
2
6
10
14
23
33
42
53
63
69
72
74
69
56
39
25
12
-1
-16
-29
-36
-37
-36
-36
-39
-37
-30
-23
-24
-25
-19
-7
8
26
40
46
45
42
41
39
30
19
10
3
-2
-4
-3
0
2
6
11
14
14
13
10
11
13
13
13
15
14
12
15
21
24
24
17
2
-18
-39
-53
-61
-66
-72
-80
-87
-89
-85
-83
-88
-90
-82
-72
-57
-39
-20
-2
13
29
46
59
70
86
101
104
95
87
79
72
63
53
42
29
20
16
11
4
0
-2
-7
-13
-18
-21
-23
-28
-32
-31
-31
-29
-23
-18
-18
-21
-22
-22
-24
-29
-33
-37
-37
-32
-27
-24
-21
-15
-1
15
33
51
69
77
74
67
59
49
37
31
29
21
3
-10
-18
-21
-29
-44
-54
-57
-54
-47
-39
-35
-34
-30
-19
-6
7
23
38
48
51
47
41
33
29
27
23
15
9
4
-1
-8
-13
-19
-25
-26
-23
-21
-25
-29
-26
-19
-12
-9
-10
-10
-9
-7
-3
-2
-6
-5
2
6
3
2
16
40
55
46
22
3
-3
-4
-8
-21
-37
-46
-50
-54
-61
-63
-53
-36
-15
5
19
24
29
34
28
15
8
10
17
25
31
33
29
24
19
15
10
6
9
20
30
35
40
48
55
52
40
26
13
6
7
6
-2
-10
-14
-18
-26
-37
-48
-54
-54
-48
-40
-34
-32
-31
-28
-25
-23
-18
-7
4
15
22
23
19
13
12
10
2
-6
-10
-10
-12
-16
-15
-10
-3
5
13
16
16
19
22
24
22
20
21
20
12
2
-4
-9
-13
-19
-27
-33
-34
-33
-26
-17
-9
-5
0
3
8
15
18
21
27
34
42
49
54
53
46
34
19
0
-19
-32
-33
-31
-33
-39
-44
-46
-49
-52
-53
-49
-40
-28
-13
-2
0
-2
-1
3
7
10
12
14
15
17
23
27
30
36
45
50
49
45
41
34
22
10
-1
-11
-16
-17
-20
-29
-41
-51
-52
-48
-42
-30
-11
6
20
29
37
43
45
39
29
15
4
-1
-4
-7
-12
-18
-26
-31
-33
-36
-44
-47
-42
-31
-22
-15
-6
7
23
37
50
56
55
55
57
57
51
41
31
19
4
-9
-17
-24
-35
-44
-48
-46
-41
-36
-29
-22
-15
-6
6
20
28
28
24
22
22
21
15
6
-2
-8
-10
-11
-14
-17
-18
-12
0
6
-1
-21
-33
-35
-35
-32
-27
-19
-15
-18
-23
-23
-16
0
24
47
55
53
49
44
33
18
7
1
-7
-23
-40
-50
-55
-56
-52
-43
-33
-24
-16
-9
-2
7
17
32
52
73
86
91
98
119
139
145
135
114
83
48
17
-8
-29
-44
-48
-49
-60
-82
-105
-119
-123
-127
-131
-133
-127
-111
-88
-60
-29
-1
24
49
67
74
70
59
45
28
10
-1
-1
4
4
-5
-19
-25
-26
-23
-17
-8
-1
3
9
20
29
32
31
33
38
43
44
44
48
57
66
72
70
58
41
28
21
15
5
-7
-22
-34
-42
-52
-67
-74
-70
-68
-75
-80
-76
-64
-48
-22
9
28
29
26
24
18
12
9
7
2
-3
-6
-3
-1
-3
-7
-14
-23
-27
-22
-15
-6
4
17
34
57
72
72
62
53
52
49
35
11
-14
-40
-60
-71
-76
-81
-83
-78
-67
-54
-45
-36
-24
-14
-6
6
24
42
64
89
113
126
121
102
81
55
22
-9
-30
-40
-49
-62
-73
-76
-75
-72
-65
-56
-43
-21
8
38
58
70
80
88
88
80
67
50
28
5
-15
-33
-50
-63
-73
-80
-80
-74
-61
-41
-16
6
20
31
44
51
48
42
45
60
76
82
77
59
29
0
-19
-33
-49
-72
-91
-100
-102
-98
-90
-79
-66
-54
-40
-23
-5
15
39
62
79
82
74
63
47
27
8
-3
-9
-15
-25
-33
-35
-34
-31
-28
-23
-12
0
7
12
17
20
21
30
49
63
66
63
67
85
100
95
77
49
10
-28
-58
-83
-109
-131
-140
-136
-125
-111
-94
-78
-63
-46
-19
16
50
69
77
81
85
86
80
70
59
50
43
40
42
39
23
2
-13
-22
-29
-37
-41
-40
-39
-38
-34
-27
-20
-11
0
5
5
6
8
11
16
17
17
15
13
15
16
12
4
-7
-18
-23
-24
-26
-31
-35
-34
-27
-16
3
32
53
58
53
45
30
13
-1
-14
-26
-37
-45
-43
-35
-31
-32
-31
-26
-26
-32
-36
-32
-22
-8
11
33
51
69
88
93
77
55
36
22
6
-13
-31
-40
-46
-50
-51
-51
-45
-36
-27
-19
-11
-2
7
18
31
43
49
46
40
37
35
28
19
9
-1
-12
-20
-23
-21
-23
-29
-37
-44
-54
-62
-60
-49
-38
-31
-27
-23
-20
-15
-7
1
12
27
39
51
64
69
67
64
58
49
38
27
20
18
15
10
7
10
24
41
47
37
19
0
-17
-26
-27
-23
-17
-12
-14
-19
-25
-26
-21
-11
1
12
20
28
32
30
19
3
-14
-24
-27
-28
-29
-29
-27
-18
-6
-1
-5
-7
-7
-9
-15
-19
-19
-17
-17
-19
-21
-26
-30
-28
-26
-26
-24
-17
-5
7
19
27
30
32
32
31
26
22
21
20
16
14
17
20
24
26
22
13
3
-12
-33
-50
-59
-64
-65
-63
-57
-48
-35
-20
-7
1
10
18
28
45
56
57
59
67
74
70
55
37
18
-1
-14
-17
-17
-22
-36
-42
-30
-14
-12
-26
-42
-48
-44
-35
-24
-14
-5
2
6
8
11
13
14
18
27
36
41
41
38
34
30
28
28
23
10
-3
-8
-8
-9
-12
-14
-15
-18
-19
-16
-13
-15
-18
-15
-6
0
1
0
-1
-6
-12
-15
-18
-22
-25
-23
-19
-14
-4
10
20
24
26
26
20
14
10
7
0
-12
-21
-21
-21
-25
-31
-31
-27
-20
-13
-8
-3
6
22
35
41
39
37
32
29
30
28
19
6
-2
-6
-9
-13
-14
-14
-13
-11
-6
-1
4
8
6
0
-3
0
9
19
24
23
17
7
-4
-14
-18
-20
-20
-18
-15
-12
-12
-12
-10
-3
1
0
-2
-7
-10
-11
-13
-19
-22
-14
-1
4
1
-1
1
4
4
0
-3
-2
5
14
17
14
9
6
11
24
35
37
33
28
23
17
7
-5
-15
-19
-21
-22
-22
-23
-26
-28
-23
-14
0
18
32
36
32
28
27
24
18
9
-5
-27
-43
-49
-48
-46
-44
-39
-31
-23
-16
-6
3
8
10
13
17
19
23
30
38
47
53
59
62
55
38
20
3
-11
-25
-41
-55
-64
-67
-69
-69
-54
-16
29
62
71
60
34
5
-21
-41
-51
-54
-57
-61
-63
-60
-46
-24
8
49
85
102
99
82
60
41
26
12
0
-9
-18
-25
-27
-25
-18
-7
1
3
-2
-11
-13
-9
0
9
19
21
15
6
0
0
3
9
21
31
27
15
7
5
6
8
4
-6
-17
-29
-37
-41
-43
-43
-37
-23
-6
5
8
6
2
-9
-28
-48
-67
-79
-81
-74
-65
-50
-25
2
24
42
66
102
132
144
140
120
91
65
45
24
2
-18
-38
-51
-56
-60
-65
-64
-53
-42
-35
-31
-26
-19
-11
-3
4
11
18
25
27
21
11
5
7
11
15
15
7
-5
-14
-21
-32
-41
-44
-42
-41
-38
-28
-9
14
37
49
49
43
39
39
40
39
35
32
31
27
17
5
-5
-14
-21
-23
-18
-11
-6
-1
2
0
-9
-18
-24
-31
-41
-50
-57
-57
-51
-42
-30
-12
9
28
38
43
50
59
65
70
70
63
49
34
20
4
-17
-37
-45
-45
-43
-41
-40
-40
-40
-30
-8
8
10
3
4
19
40
56
68
69
52
24
-2
-22
-33
-37
-40
-43
-43
-42
-41
-41
-43
-45
-42
-32
-20
-8
4
12
17
26
41
54
52
34
14
5
1
-11
-36
-54
-54
-46
-39
-32
-22
-10
1
18
43
62
73
83
89
86
74
60
48
37
24
13
7
1
-11
-27
-43
-61
-80
-94
-100
-103
-102
-96
-81
-54
-19
14
41
68
103
127
127
112
90
69
51
33
15
-7
-35
-56
-64
-66
-69
-68
-58
-42
-28
-21
-19
-14
-2
14
32
41
36
21
3
-18
-40
-51
-51
-48
-41
-31
-19
-4
13
31
44
48
47
47
47
44
37
29
23
15
4
-1
3
15
33
50
54
47
33
12
-9
-28
-40
-45
-51
-58
-60
-54
-50
-47
-31
-6
12
16
11
5
-3
-16
-28
-38
-45
-48
-44
-38
-25
0
32
57
74
84
87
76
54
28
-1
-34
-54
-54
-42
-26
-12
-1
10
17
16
5
-6
-9
4
30
59
85
94
83
58
20
-22
-50
-57
-60
-69
-76
-70
-51
-33
-24
-23
-26
-29
-26
-16
-3
2
2
0
1
6
12
19
32
58
88
98
84
60
30
1
-18
-30
-41
-50
-52
-42
-20
5
34
59
67
56
39
29
21
13
6
1
-2
-8
-13
-11
-7
-12
-24
-33
-36
-36
-35
-35
-35
-27
-16
-14
-26
-39
-43
-44
-44
-42
-37
-29
-19
-5
11
23
25
25
37
59
78
88
88
77
56
34
13
-7
-24
-34
-40
-43
-37
-24
-11
-6
-6
-10
-25
-50
-66
-66
-61
-51
-24
21
73
114
130
120
96
69
43
16
-11
-37
-54
-67
-75
-77
-75
-68
-59
-43
-20
-6
0
10
33
62
70
48
15
-14
-37
-46
-34
-2
37
66
70
55
35
7
-30
-65
-79
-71
-49
-28
-19
-14
-6
8
27
39
37
26
15
15
23
35
44
47
43
35
24
14
2
-11
-19
-19
-18
-17
-15
-12
-10
-11
-10
-5
0
9
23
39
53
57
53
48
38
17
-9
-32
-48
-58
-58
-54
-46
-31
-4
27
45
47
39
28
12
-13
-45
-71
-100
-133
-150
-140
-113
-72
-21
19
42
54
71
102
127
127
111
80
33
-12
-45
-71
-87
-87
-68
-38
-4
31
67
89
96
96
92
80
57
29
8
3
7
3
-11
-26
-34
-37
-39
-42
-46
-43
-34
-27
-28
-29
-28
-27
-24
-15
1
28
61
78
74
56
29
-10
-51
-85
-111
-135
-152
-158
-151
-120
-55
23
83
109
118
129
135
121
94
58
15
-23
-55
-80
-87
-63
-10
48
93
112
109
92
68
39
10
-19
-45
-60
-67
-64
-46
-24
-7
4
20
39
41
24
12
16
22
23
21
21
20
16
10
4
0
-8
-14
-21
-30
-45
-63
-80
-90
-97
-102
-83
-30
20
43
49
47
38
28
24
26
24
10
-6
-18
-26
-35
-42
-42
-32
-16
0
13
30
51
69
69
46
23
13
3
-15
-42
-64
-71
-58
-25
14
41
50
51
42
25
9
-4
-14
-19
-17
-9
11
48
87
103
89
60
26
-30
-104
-149
-147
-126
-100
-55
4
61
100
116
115
103
81
59
38
11
-17
-36
-43
-49
-70
-91
-97
-96
-94
-92
-87
-76
-53
-10
47
103
141
163
163
137
95
54
19
-14
-46
-67
-77
-79
-74
-65
-56
-47
-24
13
37
40
38
35
25
8
-4
-7
11
49
73
73
66
57
37
6
-32
-75
-114
-143
-150
-128
-84
-26
28
53
45
23
-1
-18
-20
-7
14
49
88
102
87
60
32
6
-6
-2
3
2
-1
-3
-2
-1
-3
-9
-24
-42
-41
-8
29
39
22
-1
-32
-83
-144
-178
-171
-142
-88
0
93
156
190
200
190
162
125
88
51
20
-3
-23
-33
-30
-29
-41
-59
-76
-92
-111
-129
-131
-103
-52
-7
19
36
45
44
32
15
3
-4
-8
-13
-17
-7
28
74
88
62
24
-7
-31
-40
-36
-31
-27
-15
4
26
43
56
66
66
58
48
42
36
25
21
33
49
54
36
-7
-62
-121
-177
-207
-202
-175
-138
-98
-56
-6
50
109
161
182
167
133
93
54
23
3
-13
-33
-49
-39
-2
37
58
52
26
-4
-31
-60
-97
-126
-137
-135
-116
-75
-24
15
42
70
96
102
92
82
68
39
10
3
14
26
28
14
-12
-40
-66
-91
-101
-91
-65
-21
31
67
81
87
91
88
78
64
52
38
11
-24
-52
-61
-60
-57
-49
-28
0
25
33
24
6
-8
-15
-18
-20
-16
-9
-5
-8
-12
-15
-16
-16
-12
-3
7
15
19
19
17
13
5
-3
-13
-23
-28
-25
-14
-2
3
12
31
54
70
67
43
5
-51
-125
-187
-217
-211
-172
-107
-40
15
65
106
124
118
108
109
107
89
71
61
54
47
46
60
89
111
113
93
58
13
-38
-97
-153
-186
-190
-173
-140
-97
-59
-27
0
24
40
49
56
57
39
11
-4
-4
-2
-2
2
12
20
22
16
5
-7
-14
-11
8
46
82
97
92
65
13
-48
-98
-131
-149
-152
-134
-95
-45
13
76
115
121
112
100
88
70
41
9
2
27
44
33
15
2
-17
-52
-94
-122
-139
-160
-175
-162
-126
-80
-29
20
56
76
88
102
119
129
126
115
96
71
46
22
4
-4
-5
-7
-13
-12
0
12
24
37
40
23
-6
-38
-69
-98
-123
-133
-123
-101
-62
-2
52
82
87
73
52
36
29
28
34
49
78
119
144
121
51
-19
-70
-113
-161
-214
-241
-231
-200
-153
-83
-5
64
130
191
218
198
149
92
28
-51
-134
-200
-248
-274
-265
-208
-110
-7
65
96
94
75
51
23
-2
-7
10
43
92
161
215
232
225
215
204
184
154
120
76
20
-24
-49
-68
-90
-108
-108
-87
-56
-20
17
45
64
79
90
89
71
41
10
-21
-52
-73
-82
-83
-83
-88
-96
-93
-68
-19
28
37
15
-6
-27
-63
-111
-153
-182
-197
-185
-136
-58
49
164
215
183
124
66
4
-46
-73
-87
-95
-87
-54
-10
26
59
98
124
121
92
49
8
-21
-37
-40
-25
6
33
43
44
41
39
33
10
-23
-56
-79
-88
-88
-88
-87
-83
-78
-65
-39
4
58
98
110
98
77
65
57
38
5
-28
-55
-66
-64
-58
-45
-24
-7
-2
-2
9
28
28
14
7
14
18
8
-12
-32
-47
-51
-35
-5
21
58
116
165
173
152
120
87
56
21
-14
-51
-87
-109
-111
-102
-82
-53
-26
-12
-8
-1
11
26
54
104
145
138
90
25
-44
-135
-238
-301
-302
-268
-201
-100
1
79
134
166
171
146
116
104
107
104
84
54
23
-10
-46
-66
-68
-62
-50
-28
-3
15
24
30
31
23
10
0
-7
-11
-9
0
12
22
23
17
8
0
-6
-8
-6
-5
-7
-14
-20
-25
-28
-28
-37
-54
-62
-52
-33
-7
24
49
59
59
51
30
4
-11
-9
11
41
60
66
61
35
-13
-59
-85
-92
-84
-64
-40
-24
-19
-18
-11
0
14
32
45
42
24
7
0
-7
-16
-17
-2
17
26
15
2
8
22
25
10
-4
-5
0
3
7
15
22
24
22
15
9
13
18
12
-7
-21
-25
-26
-29
-33
-33
-28
-18
-8
0
6
14
22
28
31
33
36
37
28
10
-7
-16
-19
-21
-23
-23
-24
-29
-27
-13
2
11
12
11
12
11
0
-18
-42
-66
-80
-83
-74
-40
12
47
54
48
38
27
18
11
-1
-25
-48
-57
-47
-32
-15
5
24
35
44
58
79
94
95
91
87
72
49
28
10
-11
-40
-68
-84
-89
-87
-78
-66
-51
-29
0
32
47
44
34
27
28
39
53
59
54
41
27
12
0
-9
-16
-22
-26
-29
-36
-48
-56
-59
-62
-66
-66
-58
-48
-40
-30
-15
0
9
18
32
51
67
76
79
67
40
14
-3
-18
-33
-47
-50
-37
-15
8
25
30
25
18
9
0
-4
-5
-7
-8
-5
0
6
13
24
29
24
14
9
10
12
11
6
0
-5
-9
-15
-23
-30
-36
-41
-43
-44
-41
-32
-15
3
20
29
35
43
50
53
49
34
15
4
5
9
7
0
-10
-17
-23
-32
-45
-52
-45
-31
-14
2
13
16
16
15
13
8
5
7
12
12
6
5
7
5
-5
-17
-25
-31
-31
-21
-6
2
4
2
-1
-4
-3
0
4
8
12
16
20
24
29
32
29
23
15
8
2
0
-2
-7
-16
-23
-24
-26
-34
-46
-51
-45
-36
-27
-14
0
14
26
38
47
48
45
41
33
23
14
10
9
7
4
2
0
-3
-8
-18
-28
-35
-36
-33
-30
-26
-19
-9
-1
5
10
11
10
12
18
21
19
17
16
16
16
14
11
4
-5
-16
-25
-35
-46
-55
-57
-54
-45
-27
-1
20
32
38
42
45
48
51
51
47
43
40
35
27
16
3
-8
-16
-20
-25
-32
-38
-38
-36
-31
-22
-11
-1
5
3
-7
-16
-20
-18
-11
-5
-4
-4
-1
6
15
22
25
22
15
4
-5
-11
-16
-17
-14
-8
-4
-1
1
4
6
8
10
10
10
13
17
18
15
12
9
3
-3
-8
-11
-14
-13
-12
-16
-23
-25
-20
-14
-11
-10
-8
-5
-1
2
8
11
15
21
27
29
27
25
24
22
16
8
2
-2
-6
-11
-16
-21
-24
-23
-19
-15
-12
-7
-1
6
13
19
21
18
15
13
9
3
0
-3
-7
-10
-9
-5
2
10
16
14
7
-1
-5
-7
-9
-12
-15
-15
-14
-12
-13
-16
-15
-6
2
9
15
19
20
19
14
1
-13
-23
-28
-32
-37
-41
-40
-32
-15
0
7
13
19
23
25
26
25
21
20
24
23
18
15
14
11
6
1
-2
-6
-9
-11
-12
-18
-25
-29
-27
-23
-19
-12
-4
0
2
6
9
9
13
20
23
21
18
14
12
8
4
2
0
2
5
1
-11
-23
-25
-21
-14
-6
0
5
5
4
4
4
2
0
2
6
8
7
5
2
0
-1
0
2
0
-3
-8
-13
-14
-9
0
6
7
5
4
4
4
6
10
13
16
19
18
13
8
4
1
-1
-1
0
-5
-11
-12
-10
-11
-18
-23
-23
-18
-15
-13
-11
-7
-3
2
8
10
10
14
19
17
12
11
14
16
16
17
20
21
17
4
-15
-34
-43
-45
-47
-46
-40
-31
-23
-15
-2
12
22
26
28
32
33
31
27
19
9
2
0
-1
-3
-6
-10
-12
-16
-21
-20
-14
-10
-6
-3
0
1
4
9
12
15
21
28
32
31
28
24
18
11
1
-11
-20
-22
-23
-28
-36
-35
-28
-21
-16
-12
-9
-6
-3
0
4
9
14
24
36
36
26
18
12
7
-1
-8
-12
-14
-14
-8
-4
-6
-12
-18
-21
-19
-13
-6
-1
0
0
0
0
3
15
24
24
19
15
13
11
6
1
-3
-8
-12
-14
-16
-17
-16
-12
-7
-3
0
7
12
13
12
13
13
10
7
9
9
4
-1
-4
-6
-10
-14
-17
-17
-14
-10
-7
-9
-13
-15
-12
-9
-6
-2
4
10
16
19
20
21
25
30
30
24
15
8
2
0
0
0
-1
-6
-11
-14
-16
-18
-13
-2
8
13
19
33
42
40
32
11
-21
-46
-54
-57
-61
-65
-63
-55
-46
-32
-11
7
19
28
33
33
28
22
16
9
4
4
6
7
9
10
11
11
12
18
27
34
39
41
35
20
6
-2
-8
-13
-15
-11
-8
-14
-27
-39
-45
-50
-53
-48
-39
-29
-18
-7
0
8
20
28
28
25
22
22
23
22
19
14
10
8
4
-4
-13
-16
-14
-15
-16
-13
-8
-2
2
7
14
19
21
24
27
22
14
10
9
7
1
-3
-7
-11
-16
-20
-23
-24
-26
-24
-15
0
16
30
40
47
47
42
34
27
19
8
-8
-26
-45
-63
-75
-78
-76
-74
-72
-65
-51
-37
-26
-11
1
11
19
28
39
47
54
63
74
83
85
82
74
56
31
10
-3
-14
-25
-34
-40
-42
-40
-36
-33
-31
-27
-20
-11
-5
0
3
7
8
9
13
16
19
23
26
24
16
7
0
-8
-16
-19
-19
-18
-19
-18
-18
-19
-18
-15
-11
-8
-6
0
7
13
18
24
28
28
28
32
34
31
25
19
15
12
6
0
-4
-8
-11
-23
-42
-58
-60
-54
-48
-44
-37
-25
-10
8
28
36
33
31
33
34
30
25
24
28
30
28
20
6
-9
-27
-48
-67
-77
-81
-78
-73
-67
-58
-48
-33
-13
6
18
26
41
58
67
70
74
79
81
78
75
74
76
84
85
68
34
-8
-53
-84
-99
-107
-111
-109
-103
-96
-86
-73
-60
-47
-32
-14
5
24
37
46
52
58
59
54
44
37
32
25
18
13
11
12
12
15
18
21
27
36
42
41
41
40
32
19
3
-13
-30
-45
-55
-62
-68
-74
-73
-67
-62
-61
-57
-49
-40
-31
-20
-4
11
24
38
50
58
62
66
71
71
64
54
42
27
6
-16
-35
-46
-50
-53
-58
-60
-55
-43
-27
-12
0
6
13
21
32
37
34
32
39
49
51
44
35
23
7
-7
-17
-24
-30
-33
-31
-25
-17
-6
3
7
4
0
-6
-9
-7
-2
-1
-7
-16
-19
-16
-16
-20
-21
-16
-6
2
7
6
0
-3
-2
0
5
19
40
57
58
48
35
23
12
0
-13
-24
-28
-28
-25
-24
-25
-26
-25
-24
-25
-22
-14
-7
-4
-3
-3
-5
-7
-4
2
7
10
12
17
29
44
55
59
57
53
44
33
21
8
-5
-16
-23
-29
-40
-53
-60
-57
-52
-47
-40
-28
-13
-5
-1
6
17
24
29
34
37
38
39
38
34
25
16
11
5
-3
-14
-22
-26
-28
-28
-29
-31
-30
-26
-19
-16
-13
-6
2
14
28
38
36
27
21
22
24
21
17
17
21
23
20
13
0
-23
-43
-56
-64
-70
-74
-72
-68
-64
-57
-44
-28
-14
0
12
25
40
56
70
81
89
89
84
78
71
59
41
24
8
-11
-39
-61
-70
-73
-75
-79
-77
-68
-58
-46
-33
-21
-10
4
24
44
55
59
63
70
79
86
85
79
67
47
21
-2
-22
-36
-48
-58
-62
-61
-60
-60
-58
-53
-49
-44
-33
-19
-6
3
15
35
54
63
61
55
49
40
27
13
-5
-28
-41
-40
-36
-38
-43
-45
-44
-41
-36
-30
-21
-7
10
28
40
43
41
39
36
31
26
23
21
22
22
15
4
-1
-3
-8
-15
-17
-13
-8
-2
6
12
12
16
26
34
37
37
32
22
12
4
-4
-16
-31
-43
-51
-62
-75
-88
-93
-91
-85
-76
-63
-47
-30
-13
4
19
33
48
62
71
71
69
67
61
49
35
26
20
16
13
8
2
-2
-4
-2
-2
-5
-7
-5
1
6
7
5
10
20
26
24
21
22
21
5
-16
-30
-40
-49
-59
-62
-62
-64
-62
-48
-29
-14
-7
-5
-4
-4
1
9
12
13
17
24
31
36
39
37
29
17
4
-7
-14
-14
-10
-5
-4
-3
3
12
19
21
23
27
31
36
43
42
36
39
53
66
64
47
29
11
-7
-24
-34
-42
-51
-60
-69
-77
-83
-84
-82
-77
-70
-61
-51
-40
-26
-11
0
6
16
35
49
52
47
44
43
44
45
43
39
30
23
16
7
-7
-22
-30
-32
-32
-31
-29
-24
-16
-6
1
7
14
21
27
27
23
22
27
29
26
19
11
3
-2
-8
-19
-27
-30
-28
-25
-23
-19
-11
-3
5
17
25
29
33
38
40
33
24
16
7
-3
-12
-16
-19
-26
-37
-43
-42
-37
-21
5
27
29
19
5
-9
-22
-27
-32
-39
-45
-43
-38
-38
-46
-55
-56
-50
-45
-38
-22
-3
13
29
49
78
105
119
120
109
92
74
58
42
26
4
-16
-30
-36
-44
-56
-65
-67
-66
-66
-66
-62
-53
-41
-24
-9
-2
-2
-4
-2
3
10
15
24
38
46
53
58
60
61
65
68
70
71
74
72
63
52
40
25
8
-3
-10
-16
-28
-44
-57
-63
-67
-67
-63
-60
-59
-57
-55
-53
-50
-42
-30
-19
-13
-8
-3
0
4
7
10
13
17
21
22
21
22
24
25
26
27
28
29
28
28
27
22
12
3
-4
-10
-16
-20
-22
-22
-24
-25
-25
-23
-19
-12
-7
-7
-12
-13
-8
0
7
8
7
6
8
13
12
4
0
0
2
1
1
2
3
2
0
-1
-1
0
2
3
4
8
17
27
29
22
12
3
-1
-4
-4
-6
-11
-12
-10
-6
-3
0
0
-7
-23
-35
-36
-31
-29
-29
-33
-37
-41
-37
-28
-19
-12
-4
5
15
26
36
39
37
35
38
46
52
59
65
67
62
51
36
20
5
-3
-12
-24
-36
-40
-36
-31
-32
-35
-38
-37
-33
-22
-10
-4
0
7
12
10
4
0
-1
-5
-8
-10
-9
-9
-7
4
12
7
0
-1
-4
-8
-10
-9
-7
-7
-6
-7
-11
-12
-8
-3
-2
-4
-4
-1
1
4
6
9
12
18
24
24
21
20
23
27
28
27
28
29
31
32
30
24
20
19
21
21
15
8
3
-1
-8
-18
-24
-23
-16
-6
0
-3
-10
-17
-25
-35
-41
-41
-40
-38
-34
-36
-41
-42
-34
-25
-22
-26
-32
-38
-44
-43
-32
-15
-4
3
11
15
13
9
9
13
16
18
29
52
74
86
86
76
64
54
46
35
17
-2
-18
-29
-38
-46
-53
-56
-56
-54
-52
-50
-47
-36
-17
8
40
64
76
78
78
79
75
65
56
46
30
10
-4
-15
-25
-40
-55
-65
-69
-73
-74
-71
-68
-63
-55
-42
-26
-13
0
19
44
62
68
63
62
79
102
116
114
98
76
50
29
12
-8
-34
-56
-73
-88
-109
-135
-152
-155
-152
-148
-140
-123
-101
-76
-47
-18
5
27
49
73
99
117
124
126
126
122
114
101
87
73
57
41
27
17
9
-1
-13
-20
-22
-22
-23
-25
-28
-32
-30
-22
-12
-7
-6
-1
6
11
13
11
5
-4
-8
-3
2
0
-9
-22
-33
-44
-54
-63
-67
-64
-56
-51
-47
-35
-19
-5
2
8
10
12
13
14
15
18
24
31
37
43
48
51
52
48
40
32
25
17
8
-3
-16
-23
-21
-17
-17
-21
-27
-32
-34
-31
-24
-15
-4
1
0
-4
-9
-14
-16
-15
-10
-2
4
13
29
44
53
51
39
30
28
32
31
26
25
28
27
21
6
-12
-28
-37
-45
-56
-69
-74
-68
-56
-42
-29
-17
-12
-8
-5
-1
1
8
17
28
40
48
54
60
63
60
50
41
32
19
1
-14
-26
-31
-32
-31
-31
-30
-28
-25
-23
-21
-17
-13
-11
-7
-2
1
3
5
10
15
16
15
15
15
13
10
4
-6
-19
-25
-24
-21
-20
-18
-18
-18
-16
-16
-14
-8
1
10
16
17
15
12
10
7
5
3
4
5
7
4
-1
-5
-4
-2
-1
0
2
10
20
29
32
29
26
28
32
32
29
29
28
21
5
-10
-23
-33
-43
-49
-52
-55
-58
-58
-54
-51
-48
-41
-35
-29
-23
-15
-7
3
16
29
38
41
41
41
42
42
42
46
53
62
68
65
52
39
30
21
9
-1
-6
-8
-9
-12
-16
-23
-35
-44
-52
-64
-75
-77
-73
-67
-65
-64
-60
-55
-48
-44
-40
-37
-34
-24
-5
11
24
37
56
82
102
107
106
108
113
118
120
111
91
67
46
28
10
-11
-38
-60
-69
-73
-79
-84
-82
-75
-67
-57
-38
-15
3
18
28
26
15
6
2
0
-9
-24
-36
-44
-51
-54
-53
-48
-44
-40
-35
-31
-27
-19
-1
20
35
44
52
61
72
76
70
65
68
79
87
85
76
63
44
22
2
-10
-20
-30
-36
-37
-41
-55
-73
-81
-79
-73
-67
-63
-58
-49
-36
-22
-5
14
29
37
38
33
25
20
15
8
-2
-17
-28
-31
-30
-29
-29
-27
-19
-4
11
22
27
31
39
49
56
59
64
78
98
105
99
91
80
54
17
-15
-39
-67
-99
-123
-134
-139
-138
-129
-114
-98
-83
-65
-44
-19
5
24
36
44
50
57
64
72
77
73
59
41
24
13
8
8
11
14
15
14
17
23
29
32
32
29
26
26
26
29
39
52
57
47
30
10
-13
-39
-63
-78
-88
-101
-117
-127
-128
-125
-121
-116
-109
-101
-90
-74
-51
-21
14
49
76
102
123
139
148
143
129
111
94
78
59
35
14
1
-4
-11
-21
-26
-22
-13
-5
-1
1
4
10
16
14
2
-6
-8
-6
-11
-18
-18
-10
-2
-6
-15
-23
-30
-41
-54
-62
-66
-67
-64
-60
-55
-49
-42
-33
-19
1
19
29
38
56
76
86
81
67
51
40
34
34
39
40
37
30
18
-2
-28
-46
-50
-48
-43
-32
-18
1
22
30
19
2
-8
-12
-18
-29
-42
-52
-59
-69
-81
-89
-89
-83
-74
-58
-38
-16
4
22
41
59
77
96
116
134
139
128
111
91
73
56
41
26
9
-12
-29
-37
-40
-44
-47
-46
-36
-24
-16
-15
-15
-13
-13
-11
-7
-3
0
3
-1
-14
-24
-26
-22
-19
-16
-14
-12
-12
-10
0
12
23
30
30
21
8
1
0
4
8
5
0
-2
-4
-4
-8
-9
-5
2
8
9
5
0
-5
-15
-24
-28
-27
-27
-28
-28
-29
-32
-34
-26
-13
-7
-6
-4
0
4
7
5
3
4
8
15
19
19
22
28
33
34
31
29
28
29
27
16
7
8
13
13
8
0
-6
-9
-10
-9
-9
-9
-9
-9
-12
-22
-32
-37
-37
-32
-21
-10
-4
-3
-3
-3
-4
-5
-7
-3
8
19
24
26
29
35
41
46
50
61
79
89
83
68
52
35
19
3
-11
-33
-61
-81
-86
-93
-109
-120
-116
-101
-74
-34
-2
12
16
15
9
0
-5
-8
-3
9
21
25
23
17
7
0
0
5
9
3
-10
-21
-26
-20
-6
5
8
6
7
11
16
21
26
35
48
56
57
52
49
47
39
23
7
-8
-27
-41
-45
-45
-50
-56
-53
-43
-33
-23
-7
8
26
47
63
72
73
69
62
48
23
-2
-19
-31
-45
-59
-67
-64
-54
-38
-23
-16
-15
-13
-8
0
6
12
17
24
32
32
25
16
14
18
21
17
11
4
-4
-13
-18
-17
-12
-2
5
2
-7
-17
-18
-14
-10
-11
-13
-17
-22
-26
-34
-46
-56
-56
-43
-25
-7
4
9
14
23
29
27
21
17
17
15
10
6
9
16
21
21
18
16
18
24
29
31
36
43
48
45
34
21
13
9
5
2
-2
-8
-15
-24
-33
-43
-50
-51
-44
-35
-19
4
29
47
51
41
22
0
-17
-27
-31
-34
-41
-51
-55
-50
-40
-27
-15
-8
-4
-2
-5
-11
-10
1
21
46
69
81
81
77
61
34
10
-6
-20
-32
-44
-49
-46
-41
-35
-30
-27
-25
-24
-20
-11
-2
6
16
24
30
33
32
32
35
39
38
32
23
20
25
32
32
25
13
0
-11
-20
-27
-31
-32
-27
-21
-17
-21
-31
-36
-33
-25
-14
-1
6
9
9
3
-7
-14
-18
-20
-24
-27
-22
-9
1
9
16
17
11
3
-2
-11
-18
-18
-10
4
26
47
61
66
60
44
24
8
-3
-11
-17
-24
-32
-41
-47
-49
-40
-23
-5
7
20
36
47
44
22
-7
-29
-38
-42
-48
-52
-49
-39
-26
-14
-1
14
30
43
52
62
73
81
80
70
53
36
21
9
0
-8
-12
-12
-12
-14
-17
-20
-25
-31
-38
-46
-50
-48
-38
-23
-10
-7
-7
-3
2
7
8
7
6
4
-1
-10
-21
-26
-25
-21
-20
-21
-20
-16
-9
-1
13
31
46
57
62
59
53
43
30
17
4
-6
-10
-10
-10
-11
-16
-17
-4
14
23
20
7
-7
-19
-25
-28
-33
-41
-44
-38
-27
-15
-10
-10
-7
-5
0
17
39
58
69
69
54
25
-4
-28
-45
-59
-66
-63
-54
-39
-24
-10
0
8
22
42
58
66
68
67
63
55
43
33
26
24
20
9
-12
-40
-68
-85
-87
-84
-76
-61
-42
-22
-8
4
18
28
31
32
28
23
21
24
28
29
24
13
0
-11
-23
-39
-50
-54
-52
-46
-36
-24
-13
-4
3
11
22
30
36
42
47
46
40
33
28
21
14
13
15
13
6
0
-10
-21
-29
-33
-36
-38
-38
-33
-27
-26
-24
-20
-13
0
19
35
42
42
42
42
37
29
22
17
13
9
2
-13
-37
-51
-51
-43
-32
-22
-16
-9
0
9
16
21
27
37
46
48
45
40
36
26
8
-9
-18
-20
-18
-20
-28
-39
-44
-42
-34
-30
-31
-30
-24
-19
-18
-17
-14
-10
-5
0
5
7
13
25
36
39
35
33
35
37
34
22
3
-16
-28
-34
-40
-48
-52
-48
-36
-20
-4
15
31
40
45
46
41
32
27
23
18
15
14
11
5
-1
-9
-16
-20
-20
-23
-29
-31
-27
-20
-16
-14
-10
0
9
18
27
32
31
27
24
17
7
-1
-5
-7
-9
-11
-11
-12
-8
3
16
21
14
0
-14
-24
-29
-36
-44
-43
-30
-9
7
21
36
48
50
44
33
17
2
-11
-23
-33
-40
-38
-29
-19
-11
-6
-4
-3
0
7
15
19
24
34
47
55
48
32
19
9
-4
-17
-27
-37
-48
-57
-60
-59
-55
-42
-22
-5
1
5
14
31
43
43
38
38
39
39
34
21
0
-26
-42
-43
-41
-35
-23
-6
7
15
18
19
13
6
0
-3
-6
-6
-2
3
5
6
11
16
20
22
20
19
22
24
23
20
20
20
14
7
4
0
-5
-10
-15
-23
-33
-40
-44
-44
-46
-46
-38
-27
-18
-8
-8
-19
-31
-38
-44
-41
-29
-14
6
41
72
85
85
76
64
51
35
14
-5
-14
-16
-21
-32
-42
-40
-26
-5
11
19
18
19
29
41
44
38
26
13
-1
-18
-35
-45
-45
-41
-39
-40
-39
-35
-30
-24
-19
-13
-6
4
24
53
69
69
62
49
24
0
-13
-20
-23
-20
-10
3
16
32
47
49
34
15
-1
-14
-25
-36
-42
-41
-35
-23
-7
0
-8
-31
-50
-54
-54
-53
-45
-31
-14
5
26
41
47
46
39
26
13
8
13
21
28
36
41
43
45
46
40
24
5
-12
-26
-30
-22
-8
0
-3
-17
-34
-50
-61
-60
-45
-24
-10
-2
6
16
21
20
15
9
3
3
9
13
16
26
36
38
33
26
17
8
0
-9
-17
-24
-26
-29
-39
-59
-80
-79
-46
-1
35
57
59
37
1
-34
-64
-84
-93
-92
-77
-38
14
62
99
122
125
111
90
74
63
56
46
35
28
18
-2
-28
-47
-49
-29
7
35
42
34
15
-17
-53
-78
-96
-111
-107
-71
-18
27
58
66
48
14
-22
-58
-87
-100
-90
-59
-14
26
52
63
66
59
39
18
0
-23
-50
-69
-64
-42
-13
18
41
38
18
0
-4
2
22
45
67
93
121
130
107
66
26
-5
-19
-18
-17
-34
-70
-98
-101
-90
-71
-41
-11
4
1
-18
-41
-44
-25
-1
23
45
56
59
62
55
31
10
1
-5
-16
-26
-29
-23
-13
-6
-8
-15
-17
-17
-16
-10
4
20
25
22
27
49
77
92
82
56
25
-3
-32
-65
-97
-113
-115
-109
-83
-40
-14
-19
-39
-58
-66
-63
-54
-45
-29
1
32
49
57
75
108
134
136
115
73
20
-18
-29
-20
14
71
109
106
77
45
22
11
9
12
20
30
31
14
-17
-65
-121
-162
-177
-180
-187
-196
-182
-134
-71
-5
69
136
177
187
151
79
10
-35
-73
-97
-89
-62
-38
-23
-2
27
45
46
53
89
154
215
253
266
235
153
46
-52
-134
-214
-292
-319
-280
-209
-102
40
144
167
135
73
0
-62
-97
-105
-82
-42
-14
3
25
50
60
44
17
-2
-7
1
25
62
97
117
114
82
25
-43
-122
-198
-235
-223
-178
-111
-25
61
124
169
211
231
214
176
114
30
-47
-99
-128
-144
-155
-145
-101
-34
41
109
140
122
74
13
-44
-81
-90
-80
-44
28
105
149
155
129
74
9
-54
-116
-184
-245
-263
-229
-164
-69
45
128
155
144
104
48
16
23
48
61
55
39
21
5
-10
-21
-19
-1
22
44
57
50
31
10
-10
-30
-42
-47
-53
-57
-53
-43
-38
-40
-45
-50
-47
-37
-21
1
27
49
66
80
90
99
102
95
72
34
-5
-36
-59
-78
-70
-22
23
34
26
10
-19
-60
-104
-141
-162
-165
-148
-112
-69
-8
72
132
151
143
119
90
66
53
48
55
77
105
123
112
56
-30
-106
-154
-184
-198
-193
-163
-116
-71
-9
87
171
198
178
140
105
74
40
9
-14
-36
-58
-72
-72
-61
-51
-39
-20
-1
3
-5
-8
3
17
16
2
-12
-18
-10
0
1
4
13
25
43
66
71
47
6
-43
-88
-111
-106
-83
-52
-21
3
27
57
78
69
33
-3
-23
-39
-60
-67
-49
-21
12
54
96
124
136
120
76
25
-17
-51
-70
-65
-39
-9
13
33
44
26
-18
-64
-94
-111
-116
-104
-76
-33
17
56
74
80
80
78
72
59
40
21
13
15
28
50
75
86
67
21
-34
-101
-183
-244
-266
-260
-221
-145
-55
33
115
171
180
147
107
100
126
143
136
115
79
23
-33
-79
-123
-163
-180
-158
-110
-57
0
66
114
125
104
67
27
0
-10
-9
-11
-27
-37
-24
3
31
48
48
40
31
13
-17
-42
-50
-49
-51
-56
-57
-51
-39
-21
3
21
26
24
26
43
71
100
115
98
51
-3
-54
-107
-156
-182
-171
-135
-91
-30
51
109
121
106
81
48
17
1
-2
-11
-25
-28
-17
3
37
80
103
92
58
11
-36
-68
-81
-87
-80
-51
-14
17
38
45
39
28
18
6
-8
-19
-16
-2
11
17
20
24
21
8
-9
-26
-37
-43
-40
-24
1
19
22
15
1
-23
-44
-50
-45
-48
-59
-61
-47
-22
17
67
103
111
99
78
61
47
36
27
19
8
-3
-15
-27
-38
-39
-19
13
34
27
1
-27
-53
-86
-121
-143
-129
-76
-11
46
86
105
113
113
107
102
93
74
42
1
-36
-68
-93
-105
-103
-94
-78
-55
-26
1
19
30
33
32
33
33
29
22
11
-2
-13
-18
-13
-1
14
24
21
5
-22
-56
-80
-89
-93
-93
-78
-45
-4
37
80
121
146
145
129
102
65
32
11
-4
-18
-27
-30
-29
-28
-24
-19
-22
-28
-30
-29
-28
-27
-23
-16
-12
-9
-5
-2
-2
0
11
20
21
16
10
4
-3
-14
-26
-32
-21
-2
7
10
16
20
10
-8
-23
-22
1
31
48
53
46
27
3
-19
-43
-63
-68
-54
-27
0
19
31
29
17
7
2
-1
-5
-2
3
10
17
24
28
28
16
-3
-24
-39
-41
-34
-20
-7
5
19
32
38
34
20
7
0
-4
-8
-13
-20
-26
-32
-34
-29
-19
-9
-7
-6
3
18
28
34
36
36
34
30
27
26
25
18
5
-8
-17
-26
-35
-41
-41
-36
-24
-8
3
6
2
0
2
2
-2
-5
-4
-7
-21
-36
-42
-41
-39
-26
-1
23
46
68
83
85
73
54
34
18
4
-7
-14
-14
-10
-3
1
2
-5
-12
-16
-19
-25
-32
-36
-36
-34
-27
-15
-5
0
4
0
-15
-32
-40
-41
-34
-20
-4
8
17
25
34
37
36
36
38
40
34
26
19
10
1
-3
-2
-1
-1
-2
-7
-16
-23
-26
-26
-22
-17
-11
-3
6
14
20
25
28
32
36
36
31
22
14
7
0
-9
-17
-21
-23
-23
-24
-30
-39
-45
-47
-46
-45
-43
-33
-18
-4
12
34
48
50
50
46
40
36
36
34
27
14
0
-7
-12
-18
-26
-35
-40
-39
-34
-30
-27
-21
-12
-5
0
8
15
16
19
24
26
24
18
11
5
-1
-6
-8
-7
-3
1
2
-3
-12
-20
-23
-22
-19
-10
8
29
42
47
45
37
29
27
26
22
14
7
4
1
-5
-15
-22
-26
-27
-29
-36
-44
-46
-42
-39
-39
-36
-27
-16
-7
3
12
16
19
22
26
26
22
18
15
12
10
12
15
17
12
-2
-18
-29
-32
-28
-22
-14
-4
8
23
30
29
26
23
21
20
21
19
17
20
23
21
13
2
-8
-16
-19
-19
-25
-35
-41
-39
-34
-30
-27
-21
-14
-10
-6
-2
0
4
11
20
25
24
21
19
15
8
2
0
-2
-4
-6
-9
-15
-20
-18
-13
-10
-10
-8
-3
0
3
6
9
13
21
28
30
28
24
20
15
9
2
-2
-7
-9
-8
-4
-3
-5
-7
-8
-8
-9
-6
-3
-2
-2
-4
-12
-18
-13
-2
7
13
16
21
25
21
11
0
-4
-3
-4
-7
-10
-12
-9
-4
-4
-7
-9
-8
-5
0
5
6
3
2
4
7
7
5
3
1
-1
-4
-6
-9
-12
-12
-14
-18
-25
-28
-25
-19
-15
-11
-6
-1
4
9
14
20
27
32
34
29
18
5
-1
-4
-8
-12
-14
-10
-3
1
0
-6
-8
-5
-3
-3
-1
3
5
7
11
14
16
17
21
24
23
19
16
14
9
4
0
-2
-6
-10
-15
-23
-31
-36
-38
-35
-29
-22
-13
-3
3
9
12
15
19
22
22
19
13
8
5
4
3
3
2
3
5
7
5
-1
-8
-9
-10
-12
-13
-11
-7
-4
-1
1
4
9
14
18
16
10
5
1
-7
-19
-26
-27
-27
-27
-26
-21
-15
-9
-3
1
2
4
8
15
22
24
24
22
23
27
29
27
20
15
12
7
1
0
-4
-12
-18
-19
-22
-27
-31
-29
-25
-22
-17
-11
-6
0
5
13
17
17
19
22
21
13
2
-2
-2
-1
0
0
-1
-3
-7
-17
-28
-33
-31
-27
-26
-24
-15
-3
4
12
20
24
27
33
38
38
33
25
16
7
0
-2
-6
-11
-15
-17
-19
-21
-23
-21
-19
-18
-18
-16
-12
-7
0
8
16
27
35
43
47
41
29
17
7
-4
-15
-23
-25
-23
-20
-19
-21
-21
-15
-8
-4
-2
1
4
2
0
1
2
2
8
16
21
18
14
12
10
6
1
0
-2
-5
-7
-9
-11
-15
-18
-19
-19
-18
-13
-6
-2
2
6
7
7
13
22
29
30
28
24
16
7
0
-5
-10
-13
-14
-15
-18
-23
-23
-19
-16
-13
-6
1
5
5
7
11
15
19
26
30
27
21
18
16
12
6
2
-1
-8
-14
-20
-28
-34
-38
-37
-32
-26
-19
-15
-14
-12
-8
-4
1
11
24
31
30
26
24
25
22
16
11
4
-4
-9
-11
-13
-16
-18
-13
-3
7
16
23
26
24
19
7
-8
-19
-21
-20
-20
-19
-14
-6
0
2
4
2
0
-1
0
0
-6
-8
-4
0
1
2
9
15
13
6
-1
-7
-11
-11
-9
-6
-1
6
13
15
13
10
8
5
2
-1
-5
-9
-15
-18
-17
-15
-13
-7
0
3
8
13
17
24
34
46
51
47
37
27
18
9
-4
-24
-42
-54
-61
-70
-84
-89
-80
-65
-47
-25
-1
17
26
33
41
48
52
57
59
56
49
41
36
30
19
10
4
0
-2
-6
-12
-18
-23
-26
-28
-29
-27
-21
-16
-15
-12
-8
-5
0
9
21
28
28
24
20
16
11
6
5
2
-1
-4
-8
-15
-20
-23
-26
-31
-35
-33
-28
-25
-24
-21
-12
0
13
26
33
34
31
32
35
39
36
27
16
3
-11
-29
-44
-57
-66
-67
-63
-51
-35
-17
-1
12
25
34
48
72
92
94
80
62
52
50
53
56
48
20
-12
-37
-55
-76
-97
-108
-106
-100
-92
-83
-71
-58
-42
-23
-1
19
39
60
79
89
86
74
58
42
29
21
15
11
8
4
0
-8
-13
-14
-16
-18
-16
-14
-13
-9
-2
0
0
4
12
16
14
9
6
6
3
0
-6
-12
-19
-21
-17
-12
-9
-6
-4
-4
-7
-13
-15
-15
-14
-10
-8
-7
-2
7
14
16
17
19
21
21
20
16
11
5
2
1
0
-1
-3
-5
-12
-24
-32
-32
-29
-15
13
34
39
35
28
22
11
-3
-17
-26
-32
-35
-35
-37
-40
-42
-44
-48
-52
-47
-30
-8
11
31
51
66
74
79
76
61
43
30
23
14
0
-15
-26
-32
-37
-38
-36
-32
-26
-20
-12
-1
10
23
34
39
38
32
26
21
16
11
6
4
5
5
-1
-9
-13
-13
-14
-14
-13
-10
-7
-4
-2
-2
-5
-6
-5
-4
-3
-3
0
2
1
0
1
2
6
12
16
16
13
10
9
7
3
0
-5
-9
-12
-15
-22
-27
-23
-14
-6
-1
3
9
10
7
0
-8
-17
-20
-16
-10
-10
-18
-25
-29
-32
-35
-36
-34
-28
-19
-7
5
17
28
37
41
39
37
34
30
26
26
29
32
33
31
28
21
12
3
-6
-17
-26
-29
-28
-27
-24
-18
-13
-10
-6
0
4
7
11
15
13
6
3
9
23
37
42
40
35
26
9
-6
-16
-27
-40
-49
-53
-54
-50
-46
-47
-49
-46
-39
-29
-14
6
24
35
42
50
55
54
53
51
47
40
30
21
12
0
-11
-15
-18
-23
-28
-32
-32
-32
-32
-28
-25
-22
-16
-10
-7
-3
4
13
24
35
41
44
39
30
23
19
19
22
23
17
5
-6
-20
-39
-57
-64
-63
-63
-64
-61
-56
-51
-41
-29
-18
-5
10
29
46
53
53
52
50
43
35
28
22
16
9
-1
-12
-19
-22
-22
-20
-13
-1
11
19
24
27
31
37
39
37
31
21
6
-8
-16
-19
-19
-22
-31
-39
-40
-38
-39
-43
-42
-33
-23
-16
-12
-10
-9
-6
2
17
30
41
54
68
75
70
58
46
30
16
8
3
-5
-22
-43
-58
-65
-66
-62
-58
-53
-45
-37
-27
-15
-1
11
18
22
27
32
34
34
35
41
45
44
40
34
28
20
12
1
-10
-19
-20
-20
-23
-25
-23
-16
-5
8
21
26
25
23
22
17
7
0
0
0
-4
-15
-27
-36
-41
-43
-44
-44
-42
-38
-35
-35
-35
-31
-23
-11
0
5
8
14
29
48
60
67
73
72
62
45
29
13
0
-10
-18
-29
-41
-51
-52
-45
-36
-30
-27
-25
-23
-18
-5
16
44
70
87
88
75
57
39
21
4
-9
-20
-30
-36
-41
-50
-57
-55
-45
-38
-39
-45
-48
-48
-42
-32
-20
-9
3
18
32
39
38
37
40
45
48
52
58
62
62
57
48
39
33
32
32
27
18
2
-18
-36
-46
-51
-53
-52
-46
-36
-29
-32
-44
-54
-58
-58
-54
-48
-41
-33
-23
-17
-18
-16
-8
1
13
26
37
41
45
49
53
55
55
57
60
60
53
43
34
23
8
-4
-13
-21
-29
-36
-40
-43
-46
-44
-37
-30
-21
-9
3
11
16
18
20
23
34
44
47
44
45
55
57
42
20
-2
-28
-49
-59
-66
-76
-86
-86
-76
-65
-56
-47
-41
-37
-31
-22
-11
2
21
43
63
76
79
74
63
46
25
8
-1
-6
-9
-13
-21
-27
-29
-30
-28
-23
-16
-10
-1
7
14
19
26
39
52
60
60
57
54
48
38
27
12
-4
-19
-26
-33
-45
-56
-56
-46
-36
-34
-31
-26
-21
-14
0
26
50
62
65
56
34
9
-10
-28
-50
-75
-91
-96
-95
-88
-76
-65
-54
-40
-23
-7
3
13
24
40
59
73
80
82
85
92
98
99
96
89
80
71
65
60
53
44
33
18
-3
-30
-61
-84
-98
-106
-114
-120
-122
-116
-104
-89
-73
-58
-41
-24
-10
1
13
23
30
38
46
49
47
45
45
43
40
40
44
43
30
14
4
0
-1
0
0
-2
-4
-6
-9
-15
-22
-25
-24
-25
-27
-25
-21
-17
-17
-17
-18
-17
-11
0
12
23
33
49
63
70
69
65
58
53
50
45
32
11
-7
-22
-36
-51
-68
-83
-91
-93
-95
-97
-95
-84
-71
-58
-41
-21
0
17
37
60
73
73
68
67
69
74
83
93
96
90
76
59
44
28
8
-12
-31
-45
-53
-57
-60
-60
-55
-53
-60
-66
-65
-59
-51
-44
-35
-22
-10
-2
2
7
9
10
12
8
2
0
0
-4
-14
-19
-17
-12
-7
-1
1
5
12
18
25
32
35
39
47
53
56
59
60
57
51
47
51
57
59
50
29
6
-11
-24
-34
-39
-37
-33
-35
-41
-47
-49
-49
-51
-49
-45
-43
-44
-42
-37
-36
-38
-37
-36
-33
-22
-2
15
24
29
35
40
43
46
48
48
49
53
62
73
80
84
80
65
41
15
-11
-39
-65
-83
-90
-91
-94
-101
-110
-119
-125
-122
-110
-90
-66
-39
-5
34
64
79
87
98
116
132
137
128
112
95
81
71
64
53
36
18
2
-14
-32
-50
-62
-66
-69
-73
-78
-79
-73
-62
-50
-39
-29
-18
-7
0
7
13
18
23
24
25
25
25
26
27
24
17
10
7
4
1
1
1
-1
-7
-13
-18
-16
-10
0
14
24
21
14
9
11
12
9
3
-3
-11
-16
-18
-25
-36
-43
-40
-34
-20
4
24
28
26
22
14
10
13
19
17
1
-15
-25
-32
-42
-58
-71
-75
-76
-74
-71
-66
-56
-43
-28
-10
9
29
44
59
77
91
94
94
94
94
91
83
75
69
62
52
44
40
32
22
14
9
4
-3
-11
-16
-18
-20
-20
-24
-28
-27
-26
-28
-31
-32
-29
-27
-31
-40
-47
-51
-50
-51
-58
-66
-68
-65
-60
-56
-52
-42
-28
-11
5
16
20
23
28
36
42
45
50
60
70
74
71
68
62
48
34
27
22
16
7
0
-2
-2
0
4
0
-7
-16
-30
-50
-64
-71
-71
-62
-37
-9
8
11
5
0
-3
-8
-15
-26
-41
-55
-60
-60
-64
-70
-66
-54
-41
-27
-11
-2
1
9
23
37
48
62
83
107
119
116
112
118
131
134
123
104
80
55
34
14
-7
-28
-47
-60
-65
-66
-67
-70
-68
-60
-50
-40
-31
-21
-15
-13
-11
-10
-10
-13
-17
-24
-34
-42
-45
-45
-46
-51
-52
-47
-39
-31
-21
-12
-5
0
10
24
37
48
58
70
78
80
76
69
58
45
35
30
26
25
24
19
8
-1
-7
-11
-15
-18
-22
-25
-28
-27
-20
-12
-6
0
2
-1
-14
-32
-51
-64
-70
-70
-71
-74
-76
-73
-71
-72
-70
-60
-47
-32
-16
1
22
46
73
97
111
116
121
124
119
111
102
95
83
61
36
14
-4
-21
-37
-51
-58
-59
-54
-48
-45
-42
-36
-26
-19
-17
-16
-14
-7
2
10
13
14
16
15
11
6
2
-1
-8
-13
-13
-14
-18
-24
-24
-19
-15
-15
-18
-19
-16
-10
-6
-3
1
12
27
42
51
53
50
45
40
36
34
35
41
47
44
26
5
-11
-25
-38
-48
-53
-58
-66
-74
-75
-73
-74
-73
-69
-64
-59
-54
-49
-44
-36
-24
-10
7
32
56
72
78
79
79
76
69
61
53
49
51
52
48
38
28
21
20
20
17
8
0
-4
-10
-18
-30
-43
-51
-51
-52
-58
-60
-55
-44
-32
-22
-17
-17
-13
-4
8
21
31
43
57
63
59
52
42
30
17
6
-1
-6
-14
-18
-21
-28
-29
-8
26
54
67
64
50
35
25
16
1
-20
-37
-48
-59
-78
-100
-115
-120
-123
-125
-127
-122
-112
-97
-78
-55
-28
0
30
59
89
111
125
133
145
165
181
182
172
153
126
92
59
31
4
-25
-50
-67
-80
-96
-114
-129
-139
-143
-138
-124
-104
-83
-59
-28
9
37
51
59
64
69
74
79
82
83
78
69
59
49
36
19
2
-8
-16
-25
-35
-39
-38
-36
-35
-32
-28
-22
-13
9
39
56
56
49
39
25
11
1
-8
-23
-46
-67
-79
-88
-96
-105
-112
-113
-108
-98
-86
-70
-51
-31
-9
16
41
59
71
82
94
103
103
98
88
74
59
45
31
14
0
-7
-9
-8
-6
0
11
21
31
40
48
51
50
44
35
25
19
19
19
15
7
2
3
5
4
-7
-26
-48
-69
-88
-102
-106
-101
-93
-85
-73
-59
-46
-37
-33
-32
-32
-33
-32
-26
-15
-5
3
14
30
42
47
50
52
50
45
38
30
20
13
12
17
23
28
34
36
33
34
39
44
45
45
45
41
32
28
32
39
44
49
49
39
21
1
-17
-34
-45
-52
-61
-74
-87
-93
-91
-81
-69
-63
-65
-67
-61
-45
-29
-18
-4
27
70
95
93
76
52
26
6
-9
-28
-51
-71
-83
-85
-86
-89
-87
-75
-53
-29
-4
20
41
60
72
79
85
91
95
94
89
80
71
66
62
49
23
-1
-16
-24
-33
-39
-42
-41
-35
-20
5
31
48
60
65
59
44
31
23
16
1
-17
-31
-43
-56
-73
-87
-95
-98
-96
-88
-74
-57
-43
-27
-2
21
33
38
44
56
66
72
73
70
61
48
32
21
10
-6
-24
-33
-38
-45
-52
-53
-50
-44
-40
-42
-43
-38
-28
-17
-7
-1
4
10
14
14
16
21
25
26
22
17
14
11
7
4
5
12
22
32
38
37
31
20
10
4
9
21
36
44
43
32
15
-4
-21
-37
-52
-62
-69
-77
-79
-75
-71
-70
-70
-61
-42
-20
0
16
32
47
59
68
76
81
86
89
87
79
70
64
59
51
42
36
34
34
31
17
-8
-36
-59
-76
-91
-98
-102
-103
-101
-101
-97
-88
-78
-65
-46
-22
-3
7
13
19
26
36
47
57
63
63
56
45
35
31
29
26
21
13
3
-5
-11
-12
-10
-7
-1
6
14
18
22
29
41
56
70
76
70
53
32
11
-15
-44
-65
-78
-82
-80
-74
-68
-58
-54
-62
-75
-85
-86
-72
-46
-24
-14
-8
-1
7
18
33
49
64
75
78
73
65
57
47
32
16
1
-11
-18
-12
1
14
21
23
25
30
28
16
-1
-18
-28
-32
-34
-39
-42
-38
-30
-26
-25
-19
-2
20
42
58
65
65
63
58
51
44
37
31
19
0
-22
-40
-51
-64
-77
-85
-86
-82
-70
-52
-35
-23
-11
5
21
34
43
52
64
77
87
93
97
97
88
70
46
17
-14
-39
-54
-70
-93
-118
-133
-134
-127
-118
-108
-92
-68
-41
-5
42
81
96
98
96
87
73
57
44
28
6
-14
-25
-24
-20
-19
-18
-16
-11
-1
6
4
-6
-19
-30
-34
-30
-22
-16
-6
8
20
25
26
29
34
37
37
33
29
26
21
15
8
0
-12
-20
-21
-20
-23
-27
-27
-18
-2
30
80
122
137
128
103
66
32
7
-12
-40
-77
-109
-124
-131
-138
-141
-132
-110
-76
-35
2
22
29
32
33
33
27
18
9
0
-15
-28
-35
-37
-34
-25
-13
-3
8
25
39
49
57
65
75
86
99
106
97
79
64
56
50
38
18
0
-10
-20
-29
-33
-25
0
33
47
33
4
-21
-40
-61
-82
-98
-110
-121
-134
-151
-161
-155
-138
-110
-77
-48
-25
-5
17
44
67
81
93
111
135
149
150
147
142
130
107
84
66
51
34
17
2
-8
-15
-12
-9
-16
-31
-55
-82
-101
-111
-113
-110
-100
-84
-67
-53
-37
-12
13
31
37
36
34
28
20
17
16
9
1
0
4
9
9
7
7
5
0
-9
-19
-25
-23
-12
0
8
13
20
26
28
28
29
29
27
21
15
8
4
5
17
33
47
57
66
71
63
43
14
-18
-52
-73
-79
-81
-86
-94
-98
-98
-97
-92
-83
-70
-49
-23
5
32
51
62
70
74
71
63
54
49
47
45
42
38
36
31
25
18
13
6
-2
-9
-12
-13
-19
-28
-38
-46
-52
-52
-47
-35
-22
-13
-7
0
8
16
22
26
31
35
34
27
17
8
1
-2
-4
-6
-10
-16
-20
-18
-18
-20
-17
-7
5
17
28
40
49
55
57
53
42
29
17
0
-25
-51
-67
-72
-72
-68
-63
-57
-53
-50
-49
-49
-48
-43
-33
-18
-4
9
25
41
52
57
59
61
66
74
80
78
71
66
65
76
92
97
72
19
-33
-67
-89
-114
-140
-146
-129
-108
-99
-96
-88
-73
-53
-31
-9
10
28
45
60
68
70
69
68
67
64
59
54
52
52
45
28
8
-2
-7
-14
-21
-24
-24
-21
-15
-10
-10
-10
-2
11
15
6
-3
-8
-10
-13
-13
-11
-8
-4
0
-5
-13
-19
-23
-25
-24
-24
-22
-15
-5
1
5
4
2
4
10
13
14
13
13
13
13
19
35
48
50
38
15
-17
-48
-66
-74
-76
-75
-67
-51
-34
-14
7
25
36
46
59
72
75
69
62
51
36
21
13
7
1
-7
-19
-32
-39
-39
-29
-17
-11
-12
-7
7
18
18
8
-4
-13
-16
-16
-18
-23
-30
-33
-30
-26
-28
-30
-25
-18
-12
-10
-9
-5
1
8
11
10
11
18
23
29
36
40
42
46
52
54
47
37
29
30
34
35
30
21
7
-14
-38
-55
-65
-69
-71
-71
-71
-65
-51
-35
-19
-5
7
21
37
46
43
35
27
20
13
9
6
0
-9
-17
-17
-14
-6
7
18
23
26
19
-2
-28
-48
-55
-51
-43
-31
-15
1
17
27
31
34
36
37
38
37
32
26
19
9
0
-4
-3
-1
3
12
28
48
61
61
47
21
-8
-36
-61
-78
-83
-83
-84
-88
-90
-84
-73
-59
-38
-16
1
13
23
34
41
41
38
36
39
42
40
38
41
47
54
54
47
34
21
12
7
1
-3
-2
0
2
2
-1
-10
-15
-10
0
0
-12
-28
-38
-42
-38
-26
-15
-9
-3
0
-4
-13
-19
-19
-16
-14
-12
-10
-9
-9
-9
-11
-13
-14
-10
0
9
15
18
21
24
28
33
37
41
47
51
48
40
29
21
19
19
17
7
-14
-36
-50
-58
-66
-71
-65
-54
-43
-35
-24
-10
0
4
5
6
8
13
18
18
14
12
16
23
26
25
24
24
24
21
13
-3
-21
-29
-18
0
6
0
-9
-17
-17
-8
0
5
7
9
12
15
12
9
13
21
31
35
22
-1
-18
-23
-24
-31
-40
-42
-33
-24
-23
-30
-31
-20
0
23
43
50
47
40
32
27
27
27
18
0
-21
-39
-49
-54
-58
-61
-60
-52
-38
-21
-2
14
26
35
38
40
40
38
37
42
52
55
47
33
18
4
-6
-15
-24
-29
