emg_value
806
719
692
690
648
526
347
196
102
36
-8
-46
-116
-229
-353
-491
-642
-755
-823
-939
-1147
-1343
-1452
-1496
-1502
-1469
-1361
-1180
-962
-684
-322
46
372
719
1070
1284
1329
1304
1308
1366
1418
1423
1370
1250
1089
925
763
597
459
363
255
116
-19
-143
-257
-376
-500
-651
-826
-933
-937
-901
-896
-944
-1011
-1056
-1048
-968
-842
-729
-639
-502
-256
51
330
542
704
814
833
776
704
645
597
561
543
522
458
330
158
-21
-174
-266
-282
-239
-195
-214
-288
-342
-322
-244
-161
-106
-48
63
227
485
838
1103
1177
1117
962
734
471
182
-108
-384
-634
-802
-892
-944
-942
-848
-668
-488
-461
-624
-807
-876
-839
-691
-446
-214
-50
60
90
35
-33
-86
-162
-264
-298
-177
64
329
588
851
1057
1193
1312
1433
1500
1422
1212
987
839
739
563
280
-33
-276
-330
-172
71
215
166
-17
-244
-479
-773
-1128
-1392
-1492
-1495
-1504
-1560
-1581
-1520
-1414
-1303
-1203
-1108
-1012
-895
-709
-448
-146
271
843
1377
1714
1861
1905
1915
1855
1702
1492
1195
812
480
287
218
245
315
351
334
300
272
223
112
-56
-273
-499
-639
-650
-536
-245
158
410
417
302
93
-195
-418
-515
-567
-612
-629
-595
-516
-416
-347
-369
-469
-573
-607
-521
-346
-186
-104
-43
53
129
136
105
94
119
133
120
122
195
330
438
490
505
474
416
358
300
280
294
221
40
-137
-223
-143
125
445
604
450
1
-524
-966
-1277
-1370
-1191
-848
-514
-278
-103
79
230
283
217
71
-33
-59
-135
-461
-987
-1331
-1325
-1105
-720
-216
178
314
241
70
-59
-57
50
198
347
474
590
709
783
796
862
1057
1295
1509
1698
1784
1726
1583
1416
1267
1151
1069
1012
927
758
527
280
40
-219
-502
-733
-866
-905
-900
-937
-1029
-1136
-1279
-1433
-1455
-1312
-1099
-872
-664
-547
-525
-540
-564
-619
-731
-886
-1040
-1135
-1129
-1076
-1049
-993
-802
-475
-88
411
1043
1539
1736
1747
1713
1711
1690
1582
1387
1100
742
447
276
167
29
-161
-316
-414
-586
-867
-1113
-1304
-1514
-1676
-1614
-1239
-688
-172
263
637
882
993
1014
932
763
556
336
55
-282
-525
-567
-454
-314
-247
-253
-311
-416
-535
-580
-487
-309
-131
72
360
700
1042
1413
1791
2062
2216
2324
2388
2311
2027
1633
1254
840
317
-207
-629
-951
-1289
-1742
-2210
-2596
-2931
-3198
-3294
-3206
-3002
-2669
-2151
-1479
-778
-118
480
935
1220
1380
1384
1212
964
754
627
587
607
643
680
710
714
681
636
645
722
791
773
646
450
278
202
218
255
263
290
378
465
514
535
448
180
-163
-461
-708
-931
-1104
-1175
-1160
-1084
-874
-529
-231
-67
88
313
492
549
553
540
459
278
43
-187
-410
-616
-732
-748
-713
-630
-513
-432
-423
-448
-503
-585
-600
-500
-305
-33
253
496
682
839
994
1089
1082
1003
871
683
448
188
-53
-209
-233
-148
-19
112
245
352
379
327
244
126
-38
-210
-353
-467
-534
-512
-419
-335
-302
-298
-300
-302
-287
-240
-172
-98
-11
82
132
119
77
38
15
4
-10
-22
-1
50
144
300
488
663
800
890
906
805
625
468
342
194
36
-80
-161
-373
-821
-1287
-1577
-1760
-1894
-1890
-1720
-1466
-1172
-874
-628
-424
-187
94
325
465
574
752
1039
1310
1464
1501
1495
1535
1606
1641
1580
1387
1121
887
698
515
294
18
-282
-595
-994
-1486
-1879
-2060
-2086
-1992
-1785
-1489
-1126
-659
-132
266
499
689
912
1113
1155
1035
875
766
725
704
656
577
487
403
331
275
220
149
66
-7
-65
-112
-166
-233
-299
-358
-423
-496
-542
-552
-545
-550
-563
-537
-456
-355
-257
-159
-67
2
42
48
24
-6
-19
-18
-8
17
60
110
150
182
225
277
329
368
374
339
274
197
107
12
-75
-161
-254
-355
-449
-500
-513
-524
-563
-602
-568
-475
-399
-352
-285
-169
-21
134
315
504
625
675
700
740
811
859
814
658
379
41
-199
-314
-366
-360
-297
-216
-158
-125
-100
-93
-107
-145
-228
-344
-433
-482
-505
-461
-313
-117
44
157
195
147
106
177
344
530
662
684
614
517
425
348
289
249
202
130
71
73
132
211
271
279
238
175
89
-18
-110
-160
-169
-145
-105
-69
-27
40
116
149
125
74
14
-71
-188
-302
-392
-466
-533
-589
-624
-650
-758
-1009
-1288
-1476
-1546
-1460
-1185
-792
-405
-96
169
461
740
938
1056
1096
1049
952
862
796
745
690
625
559
495
427
353
286
232
184
135
84
40
8
-21
-55
-84
-100
-106
-101
-89
-81
-79
-84
-96
-112
-128
-140
-147
-161
-190
-218
-238
-251
-265
-283
-297
-302
-312
-343
-379
-387
-357
-293
-205
-118
-40
44
142
233
278
281
277
275
262
234
203
178
161
142
111
74
54
54
64
82
103
130
159
168
156
146
150
145
115
79
56
37
14
0
3
13
-25
-144
-269
-339
-383
-469
-591
-661
-636
-545
-419
-294
-196
-115
-23
100
230
298
291
257
235
236
252
276
319
374
404
393
356
328
337
369
396
396
338
225
104
18
-31
-58
-74
-78
-78
-86
-111
-148
-177
-198
-217
-257
-323
-370
-372
-336
-268
-176
-87
-24
-20
-97
-215
-320
-386
-428
-463
-453
-386
-302
-218
-122
-24
52
106
157
222
274
300
315
338
370
403
427
440
436
408
366
324
303
320
356
370
352
318
269
203
133
61
-45
-202
-340
-410
-434
-479
-582
-676
-697
-644
-538
-414
-314
-253
-221
-201
-180
-159
-139
-108
-34
78
180
251
350
510
655
715
708
650
540
408
298
211
141
81
30
-13
-55
-111
-189
-260
-311
-347
-373
-397
-420
-429
-416
-392
-362
-293
-190
-94
-8
85
157
188
199
207
214
212
197
186
190
200
205
203
200
194
177
149
122
112
115
98
62
33
13
-3
-10
-17
-48
-119
-207
-248
-253
-288
-397
-548
-639
-627
-549
-425
-254
-88
28
137
282
414
495
550
576
546
472
392
320
248
168
91
32
-9
-48
-106
-172
-225
-253
-262
-277
-322
-384
-425
-430
-409
-365
-295
-198
-70
71
182
251
310
363
385
368
339
311
284
253
221
192
159
123
89
58
34
15
-4
-21
-31
-40
-58
-78
-92
-95
-87
-76
-73
-80
-86
-84
-79
-72
-61
-52
-50
-54
-58
-61
-63
-61
-57
-57
-61
-64
-68
-76
-78
-68
-55
-40
-13
15
42
65
76
74
70
63
53
40
27
14
-6
-38
-60
-54
-23
13
44
67
78
79
75
67
71
105
165
231
282
307
302
261
201
148
103
56
7
-47
-115
-195
-283
-356
-399
-414
-429
-470
-529
-591
-693
-845
-947
-923
-795
-588
-338
-119
48
194
352
521
637
669
659
664
700
729
757
819
868
838
743
631
529
431
331
245
180
118
37
-58
-140
-198
-258
-335
-404
-436
-434
-410
-376
-343
-312
-280
-255
-239
-232
-235
-240
-229
-201
-171
-145
-112
-60
7
72
119
139
123
81
46
35
40
48
51
44
33
25
25
28
28
30
38
39
31
21
13
10
8
6
0
-6
-1
3
-10
-42
-71
-78
-69
-65
-74
-79
-71
-54
-41
-35
-40
-49
-50
-46
-36
-7
37
79
100
103
106
117
133
135
123
113
115
121
116
101
90
85
77
62
41
17
-14
-49
-84
-115
-139
-148
-137
-122
-125
-133
-107
-42
17
46
54
55
43
22
4
-7
-13
-14
-9
-5
-13
-35
-51
-43
-17
7
22
23
17
18
22
23
24
27
29
29
28
25
19
11
0
-19
-33
-36
-34
-31
-25
-16
-6
4
13
25
37
47
56
63
67
60
45
34
22
0
-20
-21
-9
-6
-18
-38
-57
-64
-48
-17
4
9
5
7
19
31
36
30
13
-10
-28
-36
-34
-34
-52
-77
-95
-108
-121
-129
-110
-66
-18
38
101
144
159
162
156
129
79
20
-32
-74
-102
-121
-136
-148
-159
-160
-151
-124
-55
24
47
22
6
34
102
163
187
180
155
130
115
111
111
99
65
16
-36
-68
-52
-10
7
1
11
42
52
27
-15
-53
-61
-42
-26
-29
-34
-22
0
15
18
10
6
25
66
100
96
52
0
-28
-34
-56
-121
-190
-229
-240
-210
-130
-48
-15
-7
18
56
85
103
111
113
124
143
165
193
209
173
71
-53
-179
-302
-374
-371
-332
-302
-293
-287
-261
-208
-112
15
122
179
201
208
212
212
205
192
187
194
203
205
199
183
153
115
83
66
65
78
97
111
1
-28
-25
-20
-9
0
-2
-10
-16
-16
-15
-11
-5
6
20
19
7
-1
-9
-13
-13
-10
-4
0
2
5
5
4
-2
-14
-21
-21
-16
-10
-10
-12
-13
-6
5
14
16
18
20
16
9
6
10
12
5
-6
-11
-8
0
7
12
17
22
22
18
11
4
2
5
8
5
-1
-8
-18
-31
-36
-32
-23
-15
-14
-19
-20
-15
-9
-5
-4
0
5
12
20
21
19
18
19
22
20
16
16
14
7
2
3
10
17
15
4
-6
-9
-7
-5
-5
-2
1
1
-2
-5
-4
0
0
-5
-12
-13
-7
0
5
7
5
0
-9
-19
-22
-16
-3
9
13
12
13
9
-4
-21
-33
-36
-27
-10
3
13
21
24
22
14
5
0
2
11
16
14
12
12
10
6
4
3
5
7
5
0
-3
-6
-9
-14
-20
-21
-19
-19
-18
-11
-4
-6
-13
-15
-9
-1
0
0
2
5
10
17
21
20
21
19
10
1
-1
0
3
0
-10
-20
-18
-9
-1
2
2
5
9
15
22
28
32
29
20
10
3
0
-4
-12
-22
-30
-35
-39
-41
-41
-39
-31
-22
-16
-12
-6
3
16
23
20
14
12
7
-3
-8
4
37
84
112
111
98
77
47
24
13
2
-8
-17
-28
-47
-74
-109
-153
-188
-201
-197
-186
-176
-163
-137
-97
-36
37
94
121
133
146
156
155
145
133
122
114
105
98
98
96
81
63
51
47
41
33
21
6
-8
-18
-23
-28
-34
-40
-48
-53
-53
-50
-47
-45
-45
-45
-33
-15
-7
-14
-30
-44
-48
-45
-41
-36
-28
-22
-20
-17
-13
-6
0
0
-8
-15
-18
-13
-1
4
1
-2
-6
-11
-14
-14
-14
-13
-4
6
12
12
9
1
-9
-20
-34
-50
-53
-33
1
34
49
46
39
38
44
53
57
57
63
77
92
100
101
104
109
107
92
69
51
38
23
1
-21
-42
-77
-132
-185
-222
-247
-268
-291
-304
-289
-236
-158
-86
-35
8
62
126
171
186
188
190
189
177
157
139
123
106
90
82
80
85
101
108
94
76
59
39
12
-14
-31
-44
-64
-81
-89
-97
-117
-149
-176
-183
-171
-150
-134
-117
-89
-44
6
41
50
56
85
128
150
151
150
145
126
100
79
68
55
36
8
-21
-42
-57
-70
-73
-62
-58
-73
-97
-112
-114
-111
-109
-107
-102
-91
-72
-52
-37
-30
-26
0
47
70
64
68
114
180
210
205
197
202
208
186
137
85
27
-51
-147
-239
-322
-399
-454
-489
-511
-510
-479
-424
-352
-262
-130
65
296
505
647
706
707
672
615
552
478
388
300
231
174
106
32
-22
-58
-95
-140
-176
-211
-266
-350
-444
-509
-527
-499
-426
-325
-237
-182
-149
-115
-66
-15
29
72
112
147
186
230
260
268
269
269
262
248
231
211
188
163
135
98
55
20
-3
-24
-52
-77
-98
-133
-200
-292
-370
-400
-380
-315
-227
-159
-118
-71
-2
67
115
147
178
217
242
238
213
172
119
70
40
32
29
-2
-61
-112
-130
-113
-87
-76
-76
-72
-65
-54
-38
-10
34
114
237
368
503
660
770
736
590
435
313
209
79
-86
-248
-365
-432
-482
-568
-700
-859
-1010
-1090
-1106
-1106
-1131
-1188
-1188
-1089
-893
-596
-283
-30
177
408
660
827
895
934
982
1041
1070
1049
1002
945
875
794
713
634
563
501
442
372
268
122
-15
-108
-170
-220
-256
-271
-266
-250
-230
-215
-212
-212
-201
-184
-176
-175
-168
-173
-209
-248
-254
-226
-186
-171
-192
-226
-244
-241
-229
-221
-209
-182
-137
-73
-7
44
75
77
44
-6
-43
-58
-56
-35
3
51
97
127
121
69
-22
-140
-237
-265
-246
-224
-196
-131
-29
81
176
250
306
322
295
256
256
296
333
349
356
350
303
214
116
30
-40
-83
-77
-32
11
27
9
-55
-179
-342
-462
-479
-454
-476
-586
-751
-833
-765
-604
-399
-175
23
174
300
407
469
483
468
444
428
424
411
375
319
257
213
198
191
185
185
178
159
145
187
307
424
459
421
340
233
118
25
-38
-101
-191
-301
-399
-472
-529
-554
-538
-501
-451
-388
-316
-250
-209
-220
-278
-319
-301
-233
-97
164
526
850
1031
1075
1025
908
744
529
279
70
-68
-168
-246
-318
-400
-501
-628
-877
-1290
-1671
-1880
-1945
-1913
-1789
-1541
-1170
-625
83
749
1253
1638
2000
2349
2513
2441
2241
1986
1695
1386
1073
739
392
112
-75
-219
-441
-878
-1475
-2104
-2689
-3222
-3595
-3564
-3134
-2453
-1632
-869
-236
349
966
1543
1852
1874
1791
1706
1637
1565
1481
1399
1318
1217
1098
976
857
741
633
536
447
358
267
180
104
37
-30
-107
-176
-233
-288
-356
-444
-526
-584
-632
-680
-711
-707
-679
-658
-643
-591
-502
-430
-401
-393
-368
-316
-248
-179
-119
-80
-68
-71
-63
-25
28
73
139
263
395
454
441
413
393
355
283
181
43
-117
-256
-368
-472
-571
-651
-685
-679
-677
-736
-847
-901
-864
-769
-594
-322
-26
227
511
865
1132
1203
1145
1061
1003
952
887
824
824
919
1037
1106
1111
1069
989
844
647
447
243
18
-187
-356
-527
-705
-830
-876
-884
-928
-1058
-1253
-1514
-1871
-2368
-2873
-3051
-2814
-2232
-1381
-510
202
771
1311
1840
2185
2332
2421
2526
2591
2459
2133
1729
1328
1007
774
580
393
198
-11
-234
-469
-787
-1183
-1469
-1615
-1780
-1968
-2014
-1904
-1747
-1574
-1384
-1213
-1099
-1064
-1072
-1029
-906
-759
-547
-180
261
660
991
1293
1568
1715
1733
1809
2007
2126
2040
1836
1629
1461
1305
1138
965
779
583
405
262
142
25
-98
-210
-300
-390
-514
-653
-783
-904
-1001
-1036
-999
-934
-866
-774
-657
-558
-489
-434
-383
-331
-282
-240
-202
-164
-123
-82
-50
-21
4
14
11
13
24
35
40
45
62
92
133
179
219
241
224
159
68
-25
-121
-277
-509
-693
-741
-680
-568
-475
-435
-428
-389
-259
-50
173
344
484
646
791
896
999
1123
1223
1218
1130
1049
1100
1353
1645
1775
1690
1363
839
314
-117
-599
-1164
-1591
-1796
-1873
-1876
-1841
-1818
-1849
-2070
-2556
-3091
-3457
-3624
-3641
-3502
-3122
-2520
-1692
-645
341
1077
1620
2126
2654
3031
3185
3219
3242
3288
3279
3171
3029
2890
2708
2469
2209
1910
1567
1251
996
754
455
92
-234
-476
-667
-866
-1094
-1280
-1376
-1408
-1406
-1383
-1355
-1320
-1272
-1220
-1150
-1036
-884
-744
-662
-618
-569
-492
-388
-304
-267
-248
-208
-138
-56
25
115
246
433
606
687
654
534
381
232
93
-58
-224
-352
-420
-461
-552
-732
-923
-1054
-1117
-1133
-1115
-1057
-971
-862
-714
-531
-339
-136
135
484
805
1052
1262
1488
1734
1902
1950
1912
1819
1687
1488
1226
964
698
387
85
-149
-347
-631
-1051
-1436
-1684
-1884
-2039
-2000
-1732
-1372
-1020
-724
-514
-345
-132
128
369
570
757
982
1261
1469
1512
1442
1341
1260
1205
1155
1069
895
632
352
111
-71
-254
-502
-761
-989
-1257
-1580
-1853
-2032
-2145
-2217
-2234
-2107
-1796
-1269
-559
101
556
841
1038
1161
1141
985
782
588
435
355
335
327
318
360
518
797
1253
1843
2243
2286
2113
1849
1533
1200
878
565
230
-138
-459
-687
-852
-1000
-1159
-1308
-1459
-1692
-2000
-2223
-2290
-2241
-2065
-1731
-1269
-758
-238
243
565
711
772
810
838
839
814
786
755
710
661
627
614
621
621
569
468
352
227
85
-40
-123
-172
-202
-217
-217
-202
-161
-92
-38
-34
-62
-69
-32
29
148
358
664
1021
1273
1337
1263
1113
900
622
303
-12
-319
-617
-878
-1100
-1310
-1502
-1682
-1901
-2212
-2758
-3486
-3915
-3840
-3402
-2721
-1949
-1159
-343
508
1258
1576
1430
1093
756
498
375
391
527
849
1354
1845
2221
2629
3103
3423
3541
3606
3630
3498
3154
2686
2185
1591
867
190
-326
-758
-1226
-1749
-2177
-2453
-2699
-2950
-3076
-3034
-2910
-2740
-2455
-1984
-1382
-669
102
695
1014
1175
1257
1270
1201
1094
999
911
813
706
600
493
366
211
59
-66
-167
-292
-472
-629
-706
-735
-740
-697
-603
-482
-354
-234
-134
-56
3
41
53
54
68
97
121
128
124
129
151
174
171
142
101
63
29
-17
-71
-105
-101
-83
-92
-119
-132
-151
-204
-250
-248
-182
-60
58
119
127
127
212
420
596
615
536
440
333
188
-28
-307
-622
-899
-1000
-901
-716
-465
-128
167
295
327
392
497
624
804
1081
1383
1511
1446
1343
1270
1163
926
536
47
-585
-1376
-2090
-2608
-3101
-3621
-3938
-3970
-3846
-3698
-3598
-3461
-3192
-2688
-1874
-885
114
1059
2080
3209
4065
4520
4807
5123
5423
5432
5106
4635
4099
3509
2925
2378
1783
1098
448
-83
-528
-959
-1382
-1679
-1836
-1945
-2066
-2183
-2238
-2215
-2093
-1837
-1504
-1194
-952
-754
-579
-438
-325
-223
-153
-143
-175
-203
-206
-195
-187
-187
-198
-217
-236
-238
-225
-208
-186
-143
-73
4
57
66
39
6
-19
-49
-135
-286
-409
-451
-447
-413
-346
-264
-208
-227
-323
-423
-481
-498
-471
-400
-286
-128
58
254
431
543
588
611
655
723
772
790
794
801
816
831
871
947
1016
1027
953
794
587
414
347
354
364
406
541
670
647
462
136
-310
-754
-1135
-1481
-1844
-2199
-2376
-2341
-2212
-2051
-1878
-1707
-1553
-1458
-1428
-1363
-1170
-783
-186
480
1071
1514
1826
2071
2251
2370
2421
2350
2144
1845
1522
1213
909
633
461
399
325
167
15
-89
-194
-361
-588
-768
-868
-967
-1115
-1247
-1225
-1053
-865
-782
-842
-1009
-1197
-1359
-1457
-1406
-1200
-805
-185
460
945
1271
1582
1967
2265
2360
2316
2192
1991
1726
1445
1187
941
688
460
276
119
-29
-174
-301
-407
-528
-696
-873
-1009
-1100
-1168
-1206
-1179
-1103
-1035
-987
-937
-881
-818
-758
-728
-722
-705
-655
-560
-425
-296
-213
-173
-150
-110
-50
26
130
266
421
586
765
920
1017
1051
1005
889
728
554
415
313
210
84
-62
-193
-282
-341
-433
-597
-761
-863
-915
-992
-1137
-1220
-1117
-796
-297
221
630
890
1006
1018
970
901
831
834
958
1089
1141
1138
1104
1051
963
816
597
180
-478
-1103
-1514
-1794
-1939
-1842
-1563
-1291
-1118
-1041
-1030
-1065
-1128
-1165
-1126
-1029
-881
-664
-410
-174
45
348
764
1124
1333
1471
1699
2050
2292
2320
2278
2330
2457
2436
2181
1809
1418
1049
723
424
123
-165
-395
-577
-774
-1046
-1361
-1594
-1717
-1814
-1959
-2120
-2146
-2000
-1753
-1463
-1228
-1123
-1131
-1186
-1194
-1093
-899
-634
-308
17
291
543
903
1383
1752
1907
1963
1956
1834
1624
1411
1227
1045
840
611
392
213
64
-77
-221
-360
-473
-540
-549
-533
-547
-649
-833
-978
-1008
-946
-859
-831
-870
-911
-861
-678
-440
-228
-44
186
512
857
1168
1449
1691
1846
1849
1728
1536
1250
881
530
236
-40
-359
-732
-1079
-1377
-1787
-2386
-2944
-3300
-3474
-3398
-3008
-2452
-1905
-1180
-95
992
1763
2267
2636
2874
2863
2630
2343
2113
1962
1839
1664
1350
900
470
150
-121
-473
-914
-1236
-1337
-1295
-1164
-954
-661
-298
57
301
389
355
260
162
135
221
367
445
298
-94
-513
-792
-933
-1009
-1056
-1000
-783
-467
-147
104
222
204
156
201
350
500
568
538
439
321
211
100
-42
-217
-369
-452
-472
-515
-637
-740
-745
-714
-771
-892
-878
-663
-367
-24
367
693
894
1066
1282
1476
1593
1633
1567
1378
1127
907
746
567
313
56
-133
-264
-370
-465
-523
-553
-593
-645
-680
-664
-607
-555
-535
-513
-445
-320
-123
111
274
332
331
282
190
101
38
-17
-138
-354
-554
-658
-682
-659
-618
-565
-487
-358
-166
34
154
190
186
136
45
-34
-62
-68
-106
-179
-250
-280
-254
-199
-135
-38
123
383
687
877
919
884
788
656
564
534
532
541
542
504
426
338
274
215
127
28
-61
-159
-264
-354
-424
-487
-513
-439
-314
-258
-375
-651
-896
-997
-1008
-971
-880
-732
-548
-363
-216
-123
-47
67
253
470
610
662
699
731
697
566
379
184
-20
-217
-321
-286
-162
40
310
531
625
609
514
367
201
55
-34
-65
-66
-56
-33
-6
-5
-32
-70
-108
-143
-161
-147
-110
-52
55
206
320
357
334
253
128
0
-105
-200
-312
-447
-580
-672
-710
-724
-723
-691
-608
-420
-105
243
534
739
866
953
1018
1056
1043
926
702
459
259
68
-155
-378
-548
-650
-725
-819
-891
-895
-846
-758
-651
-563
-503
-448
-356
-194
8
186
304
369
399
403
389
364
320
259
206
183
200
244
277
292
305
313
306
266
188
82
-38
-147
-196
-171
-105
-18
71
120
108
36
-109
-290
-416
-463
-464
-422
-338
-241
-148
-41
65
116
113
107
123
139
121
78
38
34
102
205
269
292
352
479
571
563
486
370
233
125
77
79
98
102
83
44
-27
-184
-419
-600
-654
-578
-391
-225
-177
-203
-200
-113
0
30
-66
-299
-606
-823
-907
-934
-913
-800
-599
-375
-174
32
248
390
443
472
538
685
859
956
940
852
748
650
551
450
360
284
213
139
38
-93
-196
-226
-213
-197
-203
-229
-260
-273
-231
-141
-70
-44
-27
20
108
189
225
228
217
191
149
98
26
-74
-181
-277
-358
-428
-485
-502
-483
-454
-406
-331
-253
-194
-153
-122
-102
-81
-35
36
89
74
17
-8
38
151
281
365
396
405
412
416
422
431
392
280
159
88
55
22
-32
-93
-142
-182
-225
-272
-298
-291
-271
-274
-311
-343
-345
-322
-274
-208
-140
-66
32
146
235
289
326
351
354
323
259
170
41
-116
-221
-229
-183
-114
-30
41
95
152
214
254
255
252
289
374
440
417
330
202
17
-180
-332
-421
-450
-440
-433
-468
-550
-662
-758
-758
-630
-412
-157
77
244
359
448
497
495
467
448
450
462
460
439
409
369
300
198
77
-45
-183
-339
-471
-552
-579
-541
-443
-312
-159
10
185
324
374
353
318
291
263
224
173
102
18
-38
-53
-50
-54
-51
0
93
154
123
22
-79
-141
-161
-152
-132
-119
-113
-108
-112
-129
-137
-133
-136
-182
-286
-408
-520
-632
-750
-827
-789
-636
-397
-105
165
382
546
645
685
682
657
626
591
546
493
453
450
488
526
517
465
412
375
332
265
179
94
13
-74
-156
-216
-277
-385
-547
-733
-899
-1046
-1177
-1221
-1154
-1011
-791
-514
-265
-83
99
312
473
524
505
485
502
531
545
546
529
491
437
380
334
289
235
180
136
109
87
62
34
9
-9
-26
-44
-58
-77
-103
-131
-153
-156
-135
-88
-20
41
86
121
140
125
79
13
-64
-160
-247
-264
-214
-169
-195
-277
-327
-331
-344
-424
-566
-688
-719
-642
-427
-104
171
318
403
468
486
451
383
278
134
0
-77
-94
-84
-68
-18
66
133
142
115
107
133
182
266
377
454
459
409
335
263
208
170
127
53
-47
-120
-145
-160
-184
-196
-189
-180
-179
-178
-178
-176
-164
-135
-93
-53
-23
-1
8
4
-4
-3
7
10
1
-5
-5
-2
2
5
3
1
5
9
4
-7
-17
-27
-41
-49
-40
-14
15
41
61
71
67
56
44
36
31
25
7
-27
-61
-73
-73
-91
-135
-182
-222
-249
-249
-221
-179
-130
-78
-11
75
147
180
194
212
227
206
155
118
121
148
156
132
101
86
77
64
58
73
102
113
100
80
60
36
11
0
18
47
48
0
-79
-161
-248
-333
-383
-396
-387
-327
-211
-120
-92
-94
-99
-96
-81
-68
-72
-88
-89
-36
66
180
266
301
287
236
145
40
-26
-50
-64
-59
-21
19
42
64
93
111
102
76
47
25
20
24
21
10
34
113
183
203
197
164
88
-2
-64
-77
-62
-58
-73
-86
-87
-80
-64
-34
6
61
117
139
131
118
107
90
64
37
13
-3
-12
-18
-23
-23
-23
-29
-41
-52
-59
-69
-97
-130
-151
-159
-161
-162
-158
-146
-132
-113
-83
-59
-57
-67
-71
-65
-53
-34
-2
37
65
71
65
59
60
62
60
59
63
71
81
87
90
99
124
147
153
146
135
125
119
112
96
65
9
-62
-133
-189
-232
-273
-307
-321
-308
-268
-219
-175
-137
-107
-79
-42
18
104
206
292
319
298
271
245
209
171
145
132
120
93
59
29
5
-22
-51
-76
-102
-153
-239
-309
-320
-285
-218
-136
-79
-58
-45
-13
43
104
166
239
315
363
353
299
242
188
136
90
44
0
-47
-108
-173
-219
-238
-255
-300
-361
-416
-465
-497
-482
-401
-265
-90
84
198
246
269
276
262
233
204
182
181
204
226
235
237
238
238
231
222
216
212
208
193
156
93
11
-63
-117
-162
-216
-278
-324
-349
-359
-346
-312
-284
-263
-229
-164
-71
12
75
126
174
225
261
270
263
241
200
152
106
55
0
-48
-82
-110
-155
-224
-290
-340
-371
-365
-323
-273
-217
-139
-14
141
251
283
283
292
310
308
282
249
217
183
146
110
77
42
5
-30
-57
-73
-87
-101
-108
-106
-114
-136
-146
-128
-97
-67
-42
-22
-1
23
48
60
52
35
16
1
-11
-22
-29
-29
-21
-12
-5
10
30
37
26
14
14
17
12
-2
-13
-12
-10
-15
-23
-30
-28
-14
5
11
1
-11
-25
-33
-32
-22
-7
4
15
20
17
12
7
4
0
-1
1
9
16
19
29
62
121
170
177
148
105
56
4
-39
-69
-81
-71
-58
-73
-117
-170
-227
-274
-277
-243
-236
-273
-286
-228
-128
-32
33
72
102
139
198
278
328
322
295
281
280
268
230
172
102
35
-7
-34
-59
-90
-123
-130
-105
-79
-73
-81
-72
-38
8
51
72
73
65
53
41
30
22
19
20
17
10
-1
-12
-20
-27
-37
-49
-56
-53
-47
-46
-41
-31
-31
-40
-46
-48
-46
-40
-32
-31
-32
-30
-25
-21
-14
-5
1
1
0
4
15
23
23
20
14
15
25
41
68
105
141
165
174
159
127
95
62
25
-10
-41
-64
-78
-90
-113
-153
-193
-214
-214
-205
-191
-168
-133
-92
-57
-27
-7
4
14
24
30
35
43
49
40
28
39
70
83
67
44
34
35
34
22
11
1
-9
-19
-28
-41
-64
-88
-94
-77
-51
-33
-33
-34
-19
8
36
61
85
110
139
155
142
115
93
77
64
51
39
33
38
47
55
55
51
47
45
35
16
2
0
0
-6
-17
-26
-34
-46
-64
-82
-91
-90
-86
-89
-97
-97
-86
-67
-54
-51
-49
-40
-21
-4
12
33
45
40
27
21
21
21
18
12
4
0
8
25
38
41
37
37
42
47
52
56
59
58
57
50
37
21
0
-18
-26
-27
-24
-26
-50
-94
-127
-137
-134
-118
-94
-76
-67
-65
-64
-51
-12
36
63
66
68
71
71
67
61
55
51
49
50
56
66
65
52
42
33
26
21
13
5
3
5
3
-5
-13
-17
-13
-4
0
-3
-14
-20
-15
-8
-10
-21
-30
-28
-18
-14
-20
-28
-35
-39
-39
-38
-39
-41
-37
-26
-15
-5
2
7
12
24
38
44
39
30
34
45
50
44
37
37
33
19
3
-8
-16
-25
-37
-48
-54
-63
-70
-70
-64
-53
-39
-29
-22
-6
17
36
40
31
22
20
26
35
35
26
20
18
17
15
17
20
19
9
-2
-11
-17
-17
-15
-14
-13
-7
-4
-5
-10
-17
-17
-8
2
6
4
4
2
-3
-11
-19
-22
-18
-14
-10
-4
1
5
5
5
7
12
17
19
21
22
20
16
18
29
47
64
64
43
13
-10
-33
-67
-97
-109
-107
-91
-62
-38
-31
-36
-43
-44
-39
-30
-20
-7
11
34
56
71
78
79
77
89
122
146
138
113
88
72
67
65
56
39
23
8
-11
-35
-56
-72
-83
-87
-82
-79
-90
-113
-132
-142
-145
-136
-113
-84
-52
-11
30
56
61
52
42
39
40
39
37
35
34
30
22
17
24
34
34
28
22
19
18
22
26
31
33
24
12
8
11
27
47
52
42
31
24
20
12
-2
-11
-13
-24
-42
-62
-81
-98
-114
-138
-172
-199
-215
-231
-240
-220
-165
-72
34
110
148
176
200
204
195
186
180
170
162
162
164
153
123
85
59
47
34
11
-14
-34
-46
-50
-53
-58
-63
-67
-76
-92
-109
-115
-104
-79
-44
-12
8
16
19
15
5
0
-4
-21
-49
-72
-76
-47
8
52
64
54
39
26
16
16
20
19
10
-1
-9
-9
-12
-21
-21
-15
-12
-17
-26
-34
-37
-30
-4
37
70
85
97
115
128
126
116
103
82
51
35
57
100
108
42
-66
-181
-296
-382
-395
-355
-321
-309
-303
-283
-246
-190
-105
1
97
159
189
191
163
119
89
92
125
165
180
161
120
86
94
130
157
164
165
164
158
148
130
95
44
-14
-55
-52
-15
24
47
49
32
5
-27
-62
-97
-117
-104
-64
-14
36
74
75
15
-100
-232
-335
-387
-377
-307
-154
59
225
294
304
295
278
250
222
200
173
123
45
-52
-158
-286
-456
-626
-720
-699
-591
-462
-350
-242
-125
13
166
276
315
315
316
333
340
324
304
290
275
254
238
232
230
222
205
187
179
174
156
122
81
48
34
33
35
39
41
21
-36
-127
-239
-382
-548
-653
-641
-555
-479
-452
-427
-358
-265
-185
-130
-79
-7
137
364
566
674
723
743
733
670
560
428
281
143
59
25
3
-57
-178
-308
-418
-523
-685
-920
-1112
-1193
-1210
-1187
-1094
-922
-698
-374
70
477
738
890
957
959
924
873
816
752
681
608
543
479
413
348
289
248
237
240
215
155
88
40
23
35
69
138
231
278
228
113
-21
-182
-366
-504
-555
-550
-532
-502
-436
-364
-366
-469
-590
-666
-706
-728
-734
-731
-727
-705
-632
-483
-271
-50
131
279
416
515
569
618
696
775
783
718
641
585
540
484
407
302
194
125
104
100
84
39
-35
-135
-241
-342
-441
-511
-528
-498
-419
-289
-145
-40
4
1
-5
27
117
242
370
464
493
479
469
470
442
375
296
218
144
72
2
-56
-118
-209
-342
-520
-717
-915
-1094
-1170
-1119
-1006
-863
-673
-455
-218
102
497
824
1014
1102
1148
1189
1182
1098
973
818
629
445
299
174
2
-248
-515
-768
-1063
-1519
-2090
-2454
-2475
-2221
-1767
-1295
-919
-594
-210
266
704
1023
1273
1474
1571
1561
1502
1432
1366
1289
1199
1101
987
849
705
573
460
336
177
15
-124
-246
-338
-383
-383
-367
-357
-357
-351
-324
-281
-242
-228
-238
-254
-255
-213
-133
-81
-83
-103
-112
-111
-115
-134
-163
-200
-236
-265
-306
-392
-520
-626
-667
-651
-590
-502
-418
-339
-241
-71
181
411
530
559
568
612
667
670
616
537
452
370
306
249
179
87
-14
-107
-182
-255
-347
-448
-541
-658
-823
-957
-995
-955
-872
-768
-666
-577
-473
-262
83
423
650
812
1013
1263
1410
1367
1217
1053
889
736
626
553
462
297
50
-259
-638
-1008
-1159
-1048
-828
-619
-463
-361
-269
-154
-58
-29
-38
-35
-24
-9
36
110
171
161
63
-70
-184
-245
-250
-224
-166
-39
195
591
1083
1425
1531
1505
1416
1279
1112
924
682
386
124
-57
-196
-381
-693
-1090
-1508
-1905
-2271
-2583
-2746
-2726
-2499
-2052
-1487
-896
-309
267
771
1077
1205
1270
1312
1335
1322
1272
1217
1166
1095
999
892
796
726
676
631
577
503
405
301
209
134
65
-9
-93
-185
-268
-349
-445
-536
-598
-635
-663
-697
-730
-764
-804
-815
-750
-631
-496
-337
-155
1
127
254
429
638
759
740
650
553
456
355
270
206
134
35
-53
-113
-193
-424
-829
-1189
-1375
-1482
-1543
-1462
-1211
-872
-478
-79
191
310
410
564
708
788
825
854
885
911
929
942
943
925
887
844
802
774
793
867
953
985
911
739
519
276
13
-324
-737
-1053
-1193
-1288
-1441
-1584
-1651
-1673
-1680
-1669
-1614
-1527
-1453
-1398
-1286
-1044
-663
-138
435
827
1010
1130
1269
1416
1486
1457
1381
1302
1237
1188
1126
1006
815
604
429
294
156
6
-98
-132
-114
-101
-179
-336
-487
-577
-599
-573
-523
-463
-394
-326
-278
-256
-237
-195
-142
-134
-200
-294
-360
-385
-360
-297
-219
-106
55
215
332
409
461
501
520
517
511
533
619
746
849
863
753
550
339
158
-45
-294
-517
-678
-791
-856
-886
-920
-1010
-1181
-1465
-1811
-2005
-1947
-1712
-1380
-990
-577
-159
342
928
1404
1681
1863
2079
2315
2397
2288
2103
1905
1701
1485
1245
940
568
205
-109
-398
-755
-1236
-1730
-2164
-2548
-2914
-3218
-3261
-3020
-2623
-2113
-1534
-921
-306
287
793
1057
1101
1105
1206
1404
1548
1588
1632
1801
2065
2231
2227
2143
2009
1790
1498
1188
845
460
122
-124
-326
-513
-685
-849
-1056
-1335
-1710
-2143
-2458
-2574
-2533
-2332
-1950
-1452
-952
-486
-44
317
571
790
1014
1154
1162
1099
1028
969
899
826
775
726
653
568
498
453
429
406
369
346
357
375
357
271
124
-48
-213
-340
-434
-521
-664
-881
-1069
-1159
-1182
-1186
-1175
-1104
-979
-851
-773
-746
-727
-683
-591
-443
-265
-87
89
303
563
779
910
986
1046
1103
1128
1112
1086
1075
1063
1002
906
833
819
868
923
928
926
962
934
761
487
135
-297
-733
-1114
-1467
-1879
-2359
-2724
-2911
-3055
-3184
-3157
-2921
-2543
-2040
-1424
-797
-226
391
1081
1634
2015
2383
2797
3143
3220
3045
2795
2541
2268
1966
1651
1362
1119
911
710
472
136
-296
-724
-1082
-1364
-1681
-2132
-2554
-2779
-2805
-2649
-2334
-1925
-1492
-1025
-562
-245
-76
45
165
287
388
449
490
526
531
483
426
452
600
813
1023
1206
1389
1573
1678
1674
1603
1483
1304
1070
817
571
318
49
-181
-345
-462
-552
-639
-739
-854
-1001
-1162
-1244
-1210
-1115
-991
-854
-741
-664
-602
-469
-226
-2
120
172
185
182
183
201
279
442
592
643
614
554
476
377
264
152
25
-122
-233
-283
-312
-354
-399
-414
-396
-371
-428
-612
-814
-940
-1006
-1016
-916
-686
-375
-44
243
429
525
565
554
502
420
304
178
145
274
479
657
799
889
894
836
824
1017
1378
1611
1600
1460
1273
1058
821
565
268
-134
-624
-1005
-1168
-1202
-1284
-1480
-1684
-1854
-2193
-2794
-3358
-3688
-3857
-4015
-4152
-3954
-3263
-2015
-330
1180
2201
2930
3628
4330
4739
4743
4499
4115
3650
3158
2681
2179
1635
1160
784
427
-8
-542
-1038
-1431
-1745
-1978
-2110
-2114
-2049
-1981
-1825
-1493
-1080
-748
-486
-199
72
256
406
571
664
644
588
574
616
659
664
639
576
466
351
271
222
197
203
219
220
218
206
130
-20
-197
-356
-493
-598
-639
-623
-584
-520
-402
-265
-176
-157
-205
-295
-381
-441
-497
-594
-727
-857
-952
-1014
-1046
-1016
-905
-742
-565
-410
-329
-325
-324
-258
-112
74
273
549
928
1273
1494
1636
1787
1945
1972
1841
1636
1376
1050
705
384
125
-39
-131
-170
-183
-168
-117
-96
-171
-337
-617
-979
-1260
-1385
-1407
-1354
-1243
-1113
-1005
-905
-778
-637
-515
-427
-381
-368
-361
-359
-373
-340
-180
79
361
626
934
1317
1625
1791
1855
1797
1615
1382
1202
1129
1081
913
603
246
-105
-442
-702
-843
-882
-846
-770
-711
-715
-785
-894
-968
-912
-716
-474
-280
-153
-55
23
12
-194
-559
-859
-949
-831
-592
-361
-166
53
385
818
1150
1283
1309
1286
1232
1207
1245
1279
1175
881
512
190
-65
-301
-503
-577
-554
-550
-585
-623
-649
-664
-637
-554
-473
-447
-469
-496
-473
-382
-261
-145
-15
144
281
350
349
281
171
76
24
-2
-73
-234
-429
-600
-728
-783
-740
-610
-427
-129
318
721
932
999
1008
1010
1004
981
948
870
706
487
268
63
-165
-421
-602
-641
-570
-430
-262
-148
-139
-225
-375
-533
-628
-640
-569
-424
-293
-255
-327
-486
-640
-691
-668
-652
-635
-556
-391
-159
104
394
678
839
866
863
845
745
554
335
153
4
-131
-205
-190
-133
-28
158
369
536
690
828
853
758
631
523
451
405
340
215
0
-281
-521
-685
-820
-944
-1007
-936
-731
-450
-127
186
394
471
481
457
396
299
183
42
-113
-207
-207
-157
-104
-76
-65
-37
26
102
158
173
161
156
202
288
322
263
166
72
-21
-110
-194
-264
-323
-389
-452
-488
-497
-504
-532
-569
-568
-529
-513
-521
-498
-418
-279
-117
9
112
240
401
568
680
710
685
639
591
545
496
440
344
186
22
-78
-106
-81
-53
-76
-153
-235
-272
-265
-260
-281
-304
-292
-239
-165
-85
3
103
191
258
308
363
429
470
478
467
450
435
386
254
50
-157
-299
-349
-354
-364
-386
-422
-458
-473
-456
-430
-442
-502
-581
-679
-777
-773
-614
-363
-77
194
378
466
505
517
517
513
518
544
602
685
732
714
655
581
512
455
402
343
277
207
129
52
-11
-72
-141
-198
-229
-247
-282
-337
-384
-404
-423
-461
-484
-469
-421
-338
-240
-184
-177
-180
-200
-263
-331
-350
-305
-201
-72
22
67
85
99
119
133
121
53
-83
-234
-307
-280
-188
-74
14
56
63
78
139
216
271
300
307
301
298
310
332
360
397
428
445
449
437
417
402
395
384
339
241
120
4
-114
-247
-370
-425
-415
-399
-413
-468
-554
-645
-724
-789
-819
-803
-738
-618
-454
-270
-94
52
189
334
434
464
464
479
509
512
475
424
382
361
362
364
352
325
286
244
202
163
144
155
170
153
102
40
-20
-85
-142
-168
-169
-173
-198
-243
-300
-351
-372
-375
-389
-413
-425
-422
-432
-467
-516
-546
-512
-413
-271
-118
11
106
178
252
342
414
439
439
440
441
432
409
376
338
296
257
234
229
227
214
182
140
94
42
2
15
80
144
158
114
56
9
-47
-136
-241
-333
-404
-472
-555
-633
-666
-631
-529
-405
-334
-355
-436
-542
-629
-631
-539
-399
-199
74
350
566
718
835
953
1037
1047
989
879
753
642
552
463
356
241
135
43
-37
-111
-184
-257
-320
-356
-371
-391
-437
-506
-598
-681
-684
-588
-430
-236
-36
107
171
184
178
167
152
123
63
-14
-65
-73
-65
-53
-25
26
95
162
217
250
247
214
173
140
120
107
92
71
41
0
-36
-44
-38
-31
-22
-7
12
29
38
38
31
29
25
-6
-70
-125
-148
-156
-170
-193
-219
-239
-237
-205
-167
-150
-146
-133
-97
-48
-2
41
103
171
191
150
80
7
-56
-103
-137
-152
-123
-36
76
165
204
181
105
16
-49
-92
-142
-204
-260
-286
-238
-92
90
240
346
443
559
658
700
688
631
541
433
321
219
143
102
81
50
-4
-93
-222
-387
-564
-718
-861
-1032
-1177
-1220
-1115
-870
-588
-345
-141
49
230
356
418
440
451
463
462
441
418
411
421
434
442
442
417
354
269
189
119
51
-12
-67
-112
-147
-164
-155
-124
-81
-40
-12
-7
-22
-44
-74
-114
-147
-162
-162
-151
-128
-99
-72
-51
-41
-47
-67
-86
-94
-84
-61
-38
-22
-7
10
25
31
32
32
30
29
31
34
38
43
44
38
29
24
27
38
52
73
109
137
124
81
44
18
-2
-13
-13
-10
-12
-31
-73
-126
-184
-262
-360
-449
-509
-538
-520
-465
-401
-330
-237
-98
80
236
333
392
435
465
467
446
416
387
358
325
291
262
233
202
177
159
132
96
63
39
18
-5
-34
-57
-68
-77
-103
-142
-175
-197
-219
-238
-242
-217
-176
-146
-134
-121
-100
-85
-81
-88
-103
-114
-107
-82
-44
6
65
124
170
182
157
120
94
79
65
46
21
-2
-19
-25
-24
-22
-21
-13
7
24
28
24
21
28
41
50
51
44
31
24
22
18
11
0
-13
-19
-14
-8
-9
-16
-20
-11
19
63
87
78
49
23
10
-5
-34
-67
-99
-129
-149
-155
-156
-161
-157
-119
-52
7
19
-22
-74
-88
-57
-6
30
48
56
57
48
36
22
-2
-55
-127
-179
-174
-118
-38
33
75
95
121
168
222
253
259
257
240
194
137
91
63
52
52
50
47
48
58
71
68
53
43
38
27
7
-17
-41
-66
-87
-99
-102
-96
-89
-89
-99
-112
-118
-115
-110
-108
-103
-92
-79
-68
-56
-47
-53
-73
-89
-88
-69
-37
-6
9
10
4
-2
-8
-13
-14
-6
13
39
58
66
70
74
76
70
62
54
44
32
19
11
12
21
28
22
6
-12
-26
-30
-25
-17
-1
23
54
82
97
87
62
34
9
-19
-62
-116
-146
-134
-105
-84
-82
-90
-86
-58
-28
-23
-33
-34
-16
16
56
89
108
116
109
100
98
102
112
124
137
148
152
152
145
131
113
91
59
20
-10
-25
-31
-42
-58
-75
-85
-88
-84
-75
-69
-73
-83
-93
-107
-117
-118
-113
-111
-113
-113
-109
-105
-107
-113
-118
-119
-115
-103
-84
-61
-34
0
30
39
34
28
29
33
33
34
40
50
56
53
51
62
88
113
125
126
129
134
136
129
127
143
162
152
108
51
0
-56
-125
-191
-245
-280
-285
-260
-222
-183
-134
-76
-34
-6
23
54
81
97
113
140
173
195
192
169
143
121
99
74
52
38
30
25
16
4
-2
0
4
-6
-23
-26
-10
1
-5
-22
-34
-40
-44
-40
-21
2
23
33
23
4
-10
-20
-30
-44
-64
-80
-83
-82
-85
-89
-91
-104
-129
-138
-113
-63
-5
34
47
34
11
-2
1
15
26
37
52
66
68
60
50
40
23
5
-3
3
15
22
25
27
29
27
21
16
14
14
12
7
0
-9
-21
-30
-40
-49
-54
-57
-59
-60
-57
-47
-37
-32
-25
-9
10
24
30
35
46
62
80
101
119
127
130
135
134
113
79
52
36
17
-2
-17
-40
-75
-111
-142
-166
-182
-187
-173
-140
-91
-13
79
127
120
99
73
41
12
-7
-13
-6
-2
-8
-19
-29
-40
-54
-63
-59
-38
-18
-18
-31
-38
-19
67
209
316
337
295
218
138
80
46
19
-10
-40
-67
-95
-127
-153
-166
-163
-149
-139
-148
-170
-198
-228
-233
-178
-68
45
117
142
137
117
91
66
43
21
-4
-26
-33
-28
-23
-29
-46
-61
-75
-104
-141
-173
-168
-104
-14
54
96
116
115
104
97
99
108
117
113
99
88
84
84
82
71
60
52
48
47
45
43
39
25
7
-1
-2
0
-2
-10
-10
-4
1
3
-5
-28
-53
-67
-75
-83
-93
-107
-116
-111
-89
-58
-28
-2
14
18
15
14
13
7
1
1
6
7
4
5
17
30
33
33
43
66
87
87
67
44
27
9
-15
-42
-59
-64
-69
-89
-115
-127
-117
-105
-112
-132
-145
-138
-123
-110
-90
-61
-31
-13
-10
-14
-18
-14
25
101
151
150
144
169
211
235
244
257
266
253
226
200
176
149
118
84
53
21
-8
-26
-35
-48
-73
-111
-157
-197
-208
-182
-137
-96
-73
-62
-53
-42
-40
-46
-47
-46
-52
-61
-64
-45
-10
18
28
30
29
24
16
8
2
-4
-14
-25
-36
-43
-46
-42
-36
-24
-6
8
15
14
10
5
1
-1
-7
-14
-14
-13
-13
-10
-1
9
13
13
14
19
28
36
38
32
27
23
20
16
10
5
4
8
12
9
0
-6
-17
-36
-54
-52
-29
1
22
28
29
31
30
21
11
5
0
-7
-17
-25
-29
-31
-31
-23
-17
-17
-17
-7
9
27
40
52
63
64
53
40
36
46
58
56
44
27
3
-22
-45
-58
-58
-54
-60
-75
-87
-94
-93
-72
-41
-20
-24
-49
-71
-73
-54
-21
11
33
58
119
213
282
282
235
180
128
84
50
25
-2
-38
-75
-112
-154
-217
-306
-384
-429
-445
-406
-302
-177
-75
0
61
120
164
193
220
246
253
232
199
171
151
142
134
111
82
62
53
57
73
84
76
55
39
28
16
0
-16
-23
-21
-17
-19
-27
-31
-27
-19
-18
-24
-29
-33
-41
-49
-51
-47
-42
-35
-34
-38
-38
-31
-33
-51
-64
-64
-61
-55
-43
-36
-34
-25
-15
-12
-11
-4
6
12
8
-1
-6
-2
3
0
-14
-32
-44
-49
-48
-44
-36
-22
-11
-4
3
18
24
19
18
25
33
39
43
40
36
34
29
18
12
14
19
27
38
44
41
38
39
38
30
14
-1
-2
9
20
26
29
29
17
0
-11
-14
-13
-16
-21
-27
-31
-38
-47
-46
-39
-35
-20
5
23
31
37
43
38
22
8
5
11
15
7
-10
-34
-59
-69
-64
-59
-60
-67
-72
-69
-49
-22
-4
7
25
40
33
12
4
15
31
42
45
44
44
46
46
49
63
84
97
96
96
96
84
70
58
38
19
18
31
21
-38
-118
-176
-209
-242
-290
-337
-363
-353
-312
-258
-190
-107
-20
61
138
200
234
237
223
206
191
182
178
180
180
173
168
169
166
143
96
37
-16
-58
-81
-86
-86
-103
-145
-181
-180
-155
-121
-79
-34
-4
2
0
-3
-8
-13
-2
23
50
60
57
55
61
73
87
99
107
111
106
95
90
98
106
98
78
52
12
-51
-120
-172
-220
-272
-286
-227
-134
-67
-28
17
68
111
141
155
145
118
93
82
69
29
-29
-88
-134
-149
-128
-106
-122
-166
-231
-346
-506
-658
-705
-587
-382
-198
-71
27
120
198
263
324
382
424
434
422
406
394
380
363
345
322
292
271
266
267
254
227
196
164
129
102
88
77
70
78
68
-23
-201
-404
-582
-708
-743
-656
-493
-319
-163
-36
42
89
134
177
201
194
166
135
102
67
37
10
-16
-23
2
29
13
-61
-204
-383
-486
-479
-414
-320
-211
-104
-5
106
226
296
305
291
270
241
201
152
115
102
98
82
49
13
-22
-48
-34
45
185
335
419
409
344
282
242
207
149
54
-56
-190
-346
-453
-491
-534
-617
-708
-805
-930
-1086
-1227
-1255
-1144
-935
-610
-175
234
526
718
881
1081
1275
1376
1369
1285
1141
953
766
609
473
352
261
204
127
-5
-116
-157
-200
-338
-556
-727
-806
-845
-889
-915
-863
-726
-554
-354
-126
64
179
271
389
513
595
619
608
576
523
454
383
305
220
151
111
85
25
-93
-210
-271
-294
-329
-397
-465
-501
-495
-436
-335
-232
-146
-55
64
176
248
296
332
347
324
275
222
169
115
70
27
-32
-143
-322
-510
-644
-699
-670
-577
-447
-295
-111
198
660
1071
1309
1436
1481
1412
1255
1072
857
593
329
121
-14
-134
-324
-614
-1014
-1543
-2251
-3001
-3407
-3396
-3189
-2888
-2483
-1964
-1344
-592
236
898
1297
1609
1924
2115
2127
2056
2000
1989
1946
1819
1638
1441
1250
1080
925
777
617
440
278
151
42
-53
-130
-195
-279
-429
-632
-796
-893
-960
-1013
-1016
-924
-754
-568
-382
-199
-71
-12
20
60
99
105
81
65
98
181
253
278
266
222
144
61
1
-28
-38
-42
-36
-20
-22
-89
-260
-512
-754
-913
-978
-964
-905
-811
-643
-406
-177
10
192
388
563
643
625
570
519
481
442
400
354
305
251
189
126
66
28
36
80
117
121
106
95
105
143
280
549
774
833
785
690
562
416
267
112
-93
-365
-593
-704
-726
-728
-753
-786
-842
-989
-1334
-1826
-2174
-2268
-2201
-1987
-1592
-1049
-437
268
1043
1655
2017
2263
2448
2501
2414
2247
2037
1801
1547
1284
1022
701
284
-121
-439
-691
-896
-1051
-1179
-1361
-1673
-2025
-2178
-2065
-1814
-1504
-1145
-793
-510
-287
-96
58
189
339
581
916
1188
1311
1354
1402
1468
1481
1404
1277
1154
1042
916
775
628
467
284
107
-42
-190
-349
-488
-588
-664
-780
-966
-1122
-1175
-1152
-1090
-995
-853
-669
-451
-184
94
278
344
342
309
273
253
251
264
280
275
245
207
156
70
-43
-169
-300
-439
-560
-602
-558
-470
-349
-205
-85
1
90
201
310
366
368
402
509
601
629
632
640
651
623
521
343
43
-336
-590
-649
-626
-598
-583
-577
-578
-601
-702
-910
-1136
-1301
-1382
-1323
-1086
-769
-474
-166
190
504
716
880
1107
1422
1696
1864
1932
1874
1697
1466
1233
996
742
500
294
117
-62
-252
-411
-522
-616
-753
-945
-1123
-1281
-1445
-1571
-1554
-1329
-974
-621
-366
-253
-210
-130
8
187
413
689
955
1194
1413
1527
1503
1408
1285
1139
979
820
670
485
226
-42
-251
-441
-678
-953
-1257
-1607
-2142
-2871
-3411
-3540
-3382
-3050
-2552
-1885
-1084
-135
857
1561
1897
2043
2101
2094
2027
1931
1843
1772
1702
1615
1523
1436
1325
1178
1012
856
735
673
662
654
602
482
310
135
-20
-154
-308
-516
-716
-860
-974
-1137
-1379
-1584
-1678
-1687
-1627
-1522
-1414
-1324
-1260
-1203
-1088
-899
-678
-450
-221
-4
177
337
535
790
1058
1266
1368
1373
1310
1217
1112
986
827
649
491
342
163
-26
-196
-340
-479
-642
-816
-1011
-1237
-1470
-1631
-1603
-1389
-1101
-784
-434
-104
164
387
595
785
944
1078
1212
1354
1455
1485
1447
1338
1176
1000
836
682
507
309
137
14
-97
-223
-358
-486
-598
-726
-878
-965
-945
-884
-847
-839
-827
-796
-749
-641
-454
-291
