emg_value
-51
-70
-68
-63
-73
-107
-141
-156
-172
-185
-180
-161
-132
-93
-50
-8
20
20
5
-9
-20
-21
-4
27
63
104
151
206
250
235
177
125
90
65
44
30
25
22
11
2
6
17
30
43
48
41
23
6
-3
-8
-14
-23
-29
-34
-50
-74
-82
-75
-74
-74
-60
-41
-30
-27
-31
-35
-39
-48
-52
-45
-29
11
81
135
143
134
120
89
39
-20
-76
-108
-99
-69
-47
-39
-35
-32
-29
-18
6
35
49
40
18
-1
-3
6
10
8
8
-11
-63
-102
-91
-40
21
65
70
54
48
60
76
78
63
44
24
-4
-44
-76
-75
-36
7
37
50
49
28
-17
-59
-68
-63
-79
-112
-135
-137
-121
-80
-18
24
12
-45
-109
-138
-114
-58
-1
36
57
72
88
107
132
154
157
146
140
134
123
113
105
95
86
74
51
28
19
14
3
-9
-21
-27
-26
-16
-5
-6
-22
-38
-44
-46
-61
-69
-52
-31
-36
-58
-70
-68
-68
-82
-100
-109
-102
-88
-74
-55
-9
47
71
66
65
72
82
82
70
58
52
42
21
1
-6
-27
-73
-106
-119
-133
-178
-259
-320
-314
-250
-156
-62
0
27
46
99
179
216
200
185
180
165
139
117
110
117
128
128
118
115
118
109
93
78
63
52
56
65
59
48
52
57
46
24
11
6
-13
-48
-83
-111
-132
-158
-197
-251
-296
-310
-305
-282
-231
-175
-127
-78
-35
-14
-3
31
83
115
127
140
147
130
102
94
111
122
107
78
63
71
81
76
58
40
41
61
77
68
44
33
40
48
46
33
14
1
0
-5
-19
-25
-20
-13
-21
-37
-50
-55
-65
-87
-100
-94
-65
-13
37
67
80
76
46
-10
-73
-137
-219
-307
-343
-313
-225
-96
8
51
50
21
-28
-84
-119
-118
-86
-32
31
86
114
113
92
67
51
48
40
20
7
20
64
123
165
165
132
101
107
152
193
203
188
160
125
96
74
46
17
2
-3
-8
-12
-20
-36
-57
-63
-47
-27
-13
-13
-25
-34
-26
-12
-8
-17
-29
-40
-49
-55
-57
-64
-93
-136
-166
-167
-133
-84
-52
-48
-61
-69
-79
-104
-128
-126
-99
-79
-86
-95
-76
-30
14
34
29
16
15
29
44
53
63
90
143
206
241
249
252
239
201
154
109
81
67
56
48
34
6
-21
-52
-105
-165
-197
-202
-217
-245
-247
-173
-28
93
129
106
71
42
22
13
16
5
-44
-105
-141
-142
-90
5
87
123
137
142
114
59
27
39
105
202
258
244
193
129
65
7
-44
-85
-111
-132
-149
-151
-139
-128
-128
-141
-152
-132
-93
-73
-86
-109
-121
-99
-34
40
90
101
94
103
115
117
114
104
84
64
53
50
37
0
-42
-66
-76
-97
-145
-197
-207
-160
-87
-35
-28
-50
-68
-74
-78
-80
-61
-8
67
134
165
171
177
179
166
147
128
115
97
74
59
38
-5
-63
-118
-145
-132
-83
-4
73
101
95
107
135
139
102
53
21
-12
-69
-127
-160
-156
-118
-67
-28
-22
-46
-82
-106
-106
-75
-29
11
48
81
98
95
85
78
68
50
38
36
36
36
34
26
24
41
54
40
14
-3
-14
-24
-30
-27
-26
-41
-66
-85
-92
-79
-69
-98
-150
-182
-188
-171
-120
-53
-6
0
-24
-57
-91
-127
-140
-103
-35
33
88
118
116
93
69
62
74
90
110
139
162
166
169
194
230
245
226
182
136
107
85
56
24
-6
-36
-62
-74
-73
-66
-55
-58
-85
-114
-127
-128
-138
-158
-172
-172
-170
-151
-94
-27
11
7
-36
-96
-134
-134
-107
-66
-27
-14
-22
-29
-29
-24
-26
-38
-32
8
59
102
144
188
224
236
208
163
142
145
152
155
152
139
113
80
47
15
-13
-29
-30
-12
16
40
35
-6
-57
-86
-81
-58
-53
-67
-78
-69
-41
-14
-16
-44
-71
-94
-127
-175
-232
-272
-267
-223
-173
-127
-81
-43
-34
-48
-48
-27
-6
16
48
88
123
145
159
153
130
118
122
131
139
143
140
131
124
120
112
89
51
19
15
33
50
48
27
3
-14
-42
-82
-100
-92
-76
-62
-62
-74
-88
-103
-109
-92
-48
-4
20
51
112
171
190
176
136
78
31
9
-12
-85
-200
-273
-281
-264
-241
-205
-160
-126
-119
-150
-210
-263
-292
-295
-269
-213
-141
-70
4
114
266
401
477
500
485
456
434
415
383
320
235
159
110
91
86
81
68
63
73
71
21
-57
-122
-155
-169
-188
-217
-240
-244
-245
-264
-292
-303
-280
-223
-153
-112
-105
-104
-95
-76
-40
20
86
127
142
152
169
185
186
167
140
115
94
67
33
12
13
27
43
47
42
29
4
-21
-31
-29
-27
-35
-59
-88
-106
-102
-74
-38
-20
-16
-8
8
26
41
63
95
126
146
144
120
95
114
175
191
132
44
-50
-147
-231
-302
-373
-457
-545
-587
-565
-498
-394
-278
-193
-141
-100
-69
-64
-65
-32
47
179
341
464
521
536
527
499
464
436
414
388
357
317
275
241
217
191
147
89
45
6
-58
-137
-188
-189
-156
-121
-101
-93
-101
-149
-237
-326
-389
-413
-400
-367
-321
-259
-190
-132
-93
-74
-44
22
96
131
126
111
114
131
141
138
133
137
136
114
79
56
57
57
33
2
-6
-8
-33
-67
-76
-45
5
43
55
44
27
23
31
34
30
26
21
14
5
-6
-17
-33
-63
-100
-128
-127
-117
-138
-193
-252
-277
-237
-150
-87
-73
-64
-9
76
133
149
164
175
158
116
85
88
117
150
168
181
200
198
162
101
42
24
50
87
106
102
80
38
-9
-43
-71
-96
-109
-127
-166
-200
-210
-223
-259
-288
-280
-222
-115
2
62
63
57
78
119
147
150
147
142
135
117
90
61
25
-10
-22
-4
38
113
193
205
148
86
49
29
12
-13
-43
-76
-112
-139
-148
-140
-121
-113
-132
-164
-189
-211
-223
-209
-179
-120
-30
38
64
79
91
92
81
72
78
93
111
120
106
73
26
-31
-78
-97
-85
-52
-14
19
48
74
98
112
106
82
62
63
65
48
17
-9
-33
-62
-77
-70
-54
-29
10
46
72
88
93
104
120
129
127
103
58
8
-45
-108
-160
-187
-184
-168
-156
-140
-102
-65
-37
7
64
84
50
0
-35
-52
-61
-73
-89
-94
-78
-49
-27
-17
-1
39
95
129
132
129
139
149
138
109
83
66
55
54
60
60
52
45
35
9
-23
-40
-37
-38
-59
-91
-119
-141
-162
-178
-174
-141
-85
-25
31
86
121
113
67
25
11
-5
-50
-87
-79
-39
-7
4
1
-5
8
51
91
87
47
16
10
10
6
-1
-1
12
27
29
18
8
14
34
47
51
61
65
49
21
1
-6
-14
-34
-47
-25
24
62
66
43
9
-20
-44
-67
-90
-115
-143
-183
-231
-247
-212
-140
-60
-2
18
16
1
-24
-50
-56
-32
8
66
151
225
257
265
248
195
124
60
24
16
16
12
2
-19
-55
-94
-116
-106
-76
-54
-64
-97
-109
-86
-49
-6
52
118
161
165
138
102
77
66
64
52
26
3
-12
-35
-73
-102
-98
-63
-17
10
19
25
30
28
12
-11
-34
-55
-76
-97
-119
-133
-126
-94
-63
-47
-29
-25
-61
-102
-107
-70
-3
55
82
89
100
119
139
144
133
122
127
146
149
123
88
57
31
10
-9
-21
-19
-10
-18
-47
-68
-61
-35
-23
-36
-49
-51
-45
-49
-63
-62
-35
0
21
20
-4
-38
-60
-65
-61
-51
-37
-32
-41
-59
-79
-99
-118
-117
-84
-32
28
80
99
88
76
70
62
57
55
55
62
81
117
162
192
190
169
145
120
91
55
6
-54
-111
-147
-160
-164
-173
-184
-197
-227
-264
-294
-307
-283
-223
-163
-113
-49
36
130
195
215
205
190
173
151
135
130
133
139
144
136
115
97
86
65
37
15
3
4
20
53
96
138
156
133
91
66
61
53
29
-6
-34
-74
-166
-272
-322
-301
-250
-228
-252
-282
-281
-267
-259
-235
-175
-83
15
88
131
161
178
180
178
177
173
162
139
124
116
98
62
13
-32
-49
-28
16
60
87
108
139
165
155
110
70
54
39
11
-8
-24
-46
-65
-73
-78
-83
-80
-64
-37
-14
-2
4
7
8
7
14
31
41
28
3
-14
-27
-44
-66
-84
-92
-91
-81
-71
-75
-80
-72
-65
-75
-85
-75
-53
-38
-30
-20
-8
3
10
11
10
14
19
-1
-46
-60
-19
45
103
141
149
132
113
115
147
183
197
191
170
134
84
33
-3
-32
-69
-129
-195
-231
-233
-229
-241
-260
-258
-224
-195
-227
-285
-292
-223
-96
33
126
191
257
336
393
391
336
278
252
240
221
204
189
163
128
95
64
31
-2
-40
-77
-115
-161
-212
-259
-297
-324
-319
-260
-166
-70
-3
25
38
51
61
74
100
123
121
107
80
18
-32
-29
9
57
99
115
97
63
30
-2
-40
-75
-101
-125
-145
-145
-111
-65
-26
13
40
40
25
7
-5
-1
17
45
76
92
76
42
15
-13
-55
-86
-91
-82
-64
-33
0
12
-7
-25
-13
8
12
0
-1
13
27
39
57
73
79
77
79
89
104
-29
6
31
36
27
13
6
-14
-67
-121
-144
-145
-142
-153
-159
-141
-99
-40
10
37
53
67
82
95
98
97
105
113
113
102
88
77
68
51
27
8
1
-1
-9
-17
-10
5
26
39
39
38
43
45
37
25
12
0
13
67
116
121
94
59
23
-8
-39
-66
-93
-127
-160
-188
-203
-206
-207
-202
-182
-168
-188
-234
-272
-266
-199
-91
8
80
137
196
249
262
239
212
194
176
155
139
134
133
129
123
113
103
80
35
0
-5
2
15
33
44
41
31
16
-12
-48
-75
-92
-121
-166
-205
-217
-192
-140
-91
-70
-71
-70
-43
-3
12
7
14
31
40
41
40
46
54
53
42
31
24
34
62
77
66
48
31
8
-22
-46
-53
-44
-24
-6
-8
-24
-35
-36
-41
-46
-29
9
48
65
60
48
42
39
30
17
17
22
14
-9
-33
-49
-65
-89
-95
-75
-57
-55
-52
-36
-16
10
60
123
153
142
119
85
29
-25
-67
-95
-91
-61
-29
4
22
26
37
34
17
10
16
17
14
22
25
-16
-89
-131
-121
-73
-19
6
6
4
20
55
85
87
72
60
45
16
-19
-41
-23
20
42
25
10
14
6
-24
-51
-59
-45
-25
-12
-11
-15
-10
1
10
21
30
18
-19
-65
-92
-90
-62
-20
23
52
64
70
66
51
43
51
71
102
137
139
109
73
29
-26
-63
-54
-10
4
-56
-158
-255
-333
-373
-355
-289
-199
-108
-36
5
21
43
94
154
189
190
185
185
176
150
120
103
110
131
140
131
121
122
112
70
7
-48
-68
-49
-24
-14
-15
-14
-4
4
-5
-40
-105
-182
-225
-226
-203
-158
-99
-51
-19
13
65
132
191
231
259
256
198
123
84
88
86
28
-69
-160
-230
-304
-393
-473
-531
-552
-485
-310
-100
54
134
183
238
263
238
209
241
335
418
445
430
377
286
203
166
172
181
146
67
-18
-102
-228
-411
-598
-739
-804
-763
-650
-527
-401
-231
-29
120
206
281
373
456
465
418
393
392
363
286
210
189
199
182
138
102
74
-28
-232
-388
-409
-369
-320
-252
-186
-150
-123
-96
-95
-114
-109
-48
59
161
208
207
193
195
217
232
223
204
197
206
211
204
200
194
170
120
59
2
-50
-106
-182
-283
-367
-375
-306
-254
-277
-348
-439
-507
-489
-401
-316
-282
-284
-237
-105
63
191
239
247
260
278
287
266
225
208
246
312
346
332
290
258
266
298
340
399
461
481
429
330
224
93
-43
-97
-81
-98
-189
-280
-299
-306
-385
-586
-885
-1134
-1251
-1286
-1230
-1004
-671
-378
-132
105
284
393
485
589
690
729
691
629
605
609
579
492
378
257
153
98
93
110
47
-187
-473
-644
-655
-510
-278
-77
42
102
127
139
155
163
162
170
187
201
223
280
367
436
470
476
460
434
384
309
230
175
174
226
295
319
180
-199
-704
-1163
-1468
-1551
-1427
-1202
-978
-780
-596
-433
-284
-137
15
164
260
306
350
413
480
514
483
399
312
243
182
133
109
95
73
54
66
114
154
149
128
132
164
185
152
74
-25
-156
-289
-349
-315
-241
-174
-102
-9
77
131
157
180
208
213
189
175
204
252
258
233
258
350
426
433
410
436
513
545
542
555
540
463
340
182
3
-217
-506
-804
-1070
-1297
-1434
-1421
-1279
-1130
-1134
-1312
-1481
-1493
-1367
-1229
-1139
-1041
-894
-600
-70
540
1040
1406
1742
2047
2150
2015
1778
1546
1363
1231
1103
948
754
541
366
248
168
76
-104
-377
-696
-1031
-1378
-1676
-1816
-1794
-1634
-1361
-1094
-869
-633
-321
83
458
729
921
1020
1000
899
780
680
622
612
622
642
693
737
703
587
457
352
268
220
230
285
352
395
387
336
255
123
-134
-512
-836
-1023
-1171
-1301
-1365
-1422
-1533
-1655
-1668
-1449
-1059
-685
-447
-334
-239
-94
94
284
409
467
525
641
792
878
867
809
749
692
624
560
512
467
413
352
293
246
224
219
185
102
4
-60
-85
-101
-119
-133
-153
-179
-170
-105
-16
56
97
97
75
59
62
61
11
-63
-43
162
454
617
593
434
183
-57
-182
-156
-35
63
82
71
103
101
-101
-497
-915
-1226
-1519
-1883
-2109
-2041
-1751
-1378
-1083
-963
-940
-916
-858
-687
-356
57
417
643
761
871
1028
1209
1387
1575
1793
1996
2178
2376
2503
2448
2209
1841
1426
1055
743
443
96
-282
-551
-664
-716
-799
-947
-1113
-1279
-1491
-1868
-2360
-2622
-2530
-2278
-2005
-1736
-1455
-1061
-485
115
587
919
1161
1349
1452
1497
1577
1835
2239
2433
2273
1958
1666
1447
1263
1048
790
491
203
29
-64
-287
-733
-1203
-1531
-1765
-2064
-2459
-2778
-3011
-3276
-3564
-3681
-3401
-2802
-2015
-1098
-317
157
424
691
1063
1396
1598
1749
1932
2134
2245
2227
2148
2070
1978
1852
1706
1568
1438
1290
1127
971
800
591
376
189
43
-51
-130
-257
-421
-564
-710
-893
-1051
-1134
-1150
-1108
-1006
-863
-712
-536
-309
-74
154
389
608
766
782
651
463
261
61
-91
-191
-263
-309
-339
-422
-601
-830
-1120
-1500
-1815
-1943
-1977
-2032
-2069
-2005
-1826
-1542
-1150
-643
-47
629
1277
1624
1637
1492
1230
899
716
792
1019
1301
1575
1734
1797
1870
1935
1873
1638
1356
1156
1108
1207
1288
1198
858
255
-427
-997
-1430
-1780
-2036
-2108
-2016
-1861
-1712
-1582
-1473
-1413
-1427
-1485
-1537
-1598
-1704
-1847
-1920
-1725
-1231
-551
166
746
1181
1577
2051
2568
2843
2803
2644
2477
2287
2052
1798
1573
1423
1301
1084
782
514
263
-91
-552
-1051
-1538
-2025
-2452
-2599
-2453
-2193
-1899
-1558
-1159
-738
-321
74
381
556
599
530
438
406
461
614
844
1029
1077
1007
915
881
861
771
601
356
61
-206
-419
-576
-696
-859
-1091
-1299
-1390
-1401
-1407
-1403
-1353
-1206
-922
-534
-105
309
692
1022
1281
1536
1797
1949
1925
1755
1506
1250
1008
750
490
273
73
-139
-314
-436
-565
-739
-945
-1141
-1322
-1488
-1654
-1823
-1893
-1824
-1668
-1455
-1175
-804
-351
176
725
1102
1201
1129
1007
858
685
543
466
475
587
729
796
734
508
177
-58
-82
57
327
714
1101
1376
1556
1682
1709
1622
1468
1291
1077
779
423
61
-359
-865
-1344
-1774
-2249
-2970
-3911
-4573
-4709
-4485
-4026
-3435
-2847
-2323
-1699
-857
-30
602
1214
1904
2452
2772
2992
3234
3498
3612
3506
3251
2850
2323
1813
1430
1164
971
799
606
360
36
-420
-1006
-1580
-2048
-2396
-2580
-2596
-2542
-2465
-2234
-1728
-1073
-473
14
366
545
645
784
928
988
965
946
968
991
992
970
916
837
734
586
398
207
60
5
21
27
-14
-63
-71
-69
-122
-213
-296
-415
-581
-661
-568
-335
-36
239
404
443
405
319
211
124
76
34
-70
-257
-446
-599
-744
-914
-1116
-1306
-1496
-1809
-2229
-2484
-2446
-2223
-1885
-1455
-995
-542
-33
500
884
1138
1413
1814
2344
2798
3046
3134
3113
2981
2695
2295
1883
1486
1080
714
433
229
27
-250
-548
-779
-953
-1247
-1764
-2301
-2718
-3187
-3736
-4035
-3953
-3647
-3107
-2269
-1306
-376
578
1477
2053
2365
2682
3051
3285
3203
2869
2442
1961
1448
997
638
325
5
-330
-617
-848
-1052
-1267
-1490
-1602
-1538
-1256
-736
-160
246
406
417
461
623
864
1085
1263
1431
1508
1418
1232
1016
778
534
298
75
-171
-462
-714
-864
-930
-975
-1049
-1141
-1281
-1695
-2425
-3016
-3192
-3084
-2868
-2620
-2253
-1662
-796
186
889
1202
1331
1516
1851
2173
2343
2373
2317
2211
2034
1774
1471
1136
766
441
213
65
-52
-203
-386
-566
-727
-841
-881
-851
-767
-645
-450
-140
216
565
879
1106
1232
1271
1246
1142
893
509
70
-357
-827
-1364
-1761
-1891
-1854
-1875
-2089
-2317
-2375
-2255
-1942
-1448
-904
-414
204
1095
1899
2299
2380
2305
2151
1945
1702
1444
1178
880
554
217
-92
-369
-640
-875
-1053
-1187
-1282
-1319
-1260
-1092
-815
-496
-271
-161
-55
224
725
1192
1428
1485
1461
1396
1280
1125
976
868
799
767
771
780
714
507
190
-156
-493
-901
-1408
-1829
-2052
-2172
-2224
-2135
-1905
-1633
-1398
-1230
-1126
-1050
-945
-752
-429
40
654
1561
2704
3471
3575
3289
2811
2229
1690
1259
869
400
-137
-534
-745
-891
-1056
-1279
-1548
-1881
-2319
-3006
-3935
-4711
-5119
-5135
-4587
-3444
-1955
-445
1052
2505
3510
3963
4175
4290
4288
4200
4057
3777
3339
2853
2410
2018
1596
1091
589
168
-179
-511
-868
-1188
-1403
-1517
-1581
-1639
-1693
-1780
-2054
-2537
-2943
-3066
-2922
-2473
-1761
-1053
-503
7
549
967
1189
1296
1356
1402
1414
1384
1336
1287
1237
1170
1088
1008
889
686
420
158
-24
-116
-181
-257
-328
-382
-449
-560
-698
-856
-1077
-1342
-1514
-1536
-1463
-1280
-962
-593
-262
11
283
575
796
933
1057
1217
1404
1516
1504
1402
1254
1098
917
682
388
55
-249
-477
-641
-781
-892
-914
-863
-827
-881
-1027
-1165
-1252
-1334
-1423
-1467
-1435
-1374
-1292
-1096
-760
-353
64
509
932
1152
1146
1089
1186
1545
2037
2446
2665
2747
2760
2652
2427
2125
1614
865
181
-240
-494
-751
-1092
-1440
-1730
-1993
-2206
-2315
-2406
-2643
-3228
-4091
-4693
-4734
-4256
-3334
-2213
-1147
-195
815
1907
2709
3088
3250
3341
3428
3514
3565
3511
3298
2958
2571
2196
1796
1296
751
267
-126
-505
-957
-1438
-1862
-2158
-2333
-2405
-2298
-2011
-1615
-1175
-805
-545
-315
8
419
705
764
713
707
815
993
1168
1262
1208
1011
735
443
163
-87
-301
-471
-590
-649
-643
-585
-522
-488
-458
-422
-421
-504
-658
-837
-1029
-1214
-1294
-1207
-959
-625
-367
-256
-226
-147
55
297
479
572
688
1009
1523
2077
2544
2827
2851
2616
2238
1824
1325
705
95
-430
-873
-1240
-1548
-1770
-1926
-2081
-2479
-3315
-4293
-5052
-5502
-5581
-5177
-4340
-3268
-1933
-336
1077
2021
2670
3167
3436
3504
3492
3419
3340
3347
3390
3332
3176
3030
2905
2753
2550
2235
1810
1358
900
407
-195
-853
-1261
-1300
-1118
-839
-591
-530
-677
-1038
-1566
-1999
-2178
-2168
-2089
-1995
-1812
-1498
-1058
-563
-201
-53
-52
-151
-369
-676
-969
-1152
-1212
-1131
-863
-467
-68
409
1103
1892
2618
3240
3770
4121
4071
3650
3006
2219
1444
748
95
-634
-1493
-2247
-2756
-3114
-3516
-4085
-4695
-5226
-5811
-6449
-6716
-6414
-5711
-4474
-2627
-724
830
2141
3474
4796
5571
5651
5437
5155
4769
4301
3865
3518
3250
3012
2761
2482
2147
1761
1412
1151
976
889
867
861
817
693
497
293
145
-7
-267
-682
-1231
-1772
-2206
-2518
-2787
-3135
-3477
-3703
-3992
-4454
-4831
-4992
-5022
-4969
-4811
-4463
-3894
-3022
-1862
-775
46
724
1452
2240
2789
2985
2988
3019
3250
3594
3880
4062
4176
4193
3983
3572
3045
2388
1682
1052
537
206
139
264
409
492
555
628
658
598
454
234
-42
-337
-606
-824
-1077
-1436
-1786
-2014
-2090
-2060
-2042
-2067
-2054
-1958
-1830
-1700
-1524
-1282
-1002
-719
-470
-261
-49
192
422
634
872
1192
1533
1687
1617
1461
1316
1195
1041
820
551
213
-181
-492
-666
-799
-1012
-1308
-1510
-1528
-1438
-1331
-1264
-1270
-1327
-1380
-1355
-1186
-904
-572
-37
829
1748
2428
2824
2945
2811
2525
2228
1959
1685
1404
1130
883
696
576
474
312
53
-388
-1010
-1571
-1970
-2310
-2751
-3290
-3602
-3519
-3134
-2603
-2142
-1831
-1565
-1115
-400
301
815
1302
1834
2214
2363
2431
2586
2831
2999
3034
2990
2812
2429
1944
1518
1186
863
492
113
-251
-594
-910
-1237
-1584
-1949
-2330
-2754
-3129
-3190
-2923
-2512
-2092
-1744
-1390
-933
-412
59
355
509
767
1242
1682
1902
2000
2095
2139
1996
1683
1321
924
485
117
-99
-189
-223
-248
-261
-259
-241
-273
-452
-725
-942
-1051
-1053
-878
-515
-104
232
514
758
876
826
666
446
203
-11
-202
-408
-617
-765
-836
-856
-814
-698
-508
-246
22
163
89
-134
-368
-540
-712
-965
-1230
-1391
-1408
-1279
-1047
-830
-657
-468
-306
-236
-154
79
456
964
1558
2045
2364
2682
3058
3298
3282
3057
2653
2134
1623
1200
905
683
391
-21
-492
-936
-1324
-1651
-1884
-2081
-2335
-2604
-2736
-2685
-2519
-2321
-2119
-1842
-1482
-1159
-959
-811
-583
-230
191
603
976
1346
1703
1994
2162
2143
2007
1903
1872
1818
1651
1414
1193
1011
869
756
629
475
273
16
-241
-478
-714
-1009
-1374
-1698
-1929
-2083
-2119
-2025
-1924
-1899
-1824
-1580
-1272
-1064
-932
-736
-438
-99
203
459
715
944
1136
1332
1518
1640
1660
1594
1469
1324
1202
1121
1075
1031
963
883
812
751
672
515
269
27
-146
-270
-455
-794
-1159
-1368
-1407
-1368
-1358
-1424
-1522
-1618
-1723
-1806
-1852
-1902
-1903
-1699
-1293
-855
-450
-35
360
692
948
1151
1321
1410
1414
1463
1615
1735
1753
1724
1703
1700
1648
1509
1310
1058
777
540
373
243
86
-117
-281
-354
-372
-417
-549
-700
-771
-758
-727
-777
-938
-1127
-1245
-1239
-1132
-1035
-1027
-1076
-1094
-1018
-866
-686
-505
-304
-63
191
408
606
838
1049
1158
1140
1026
900
838
852
889
886
812
693
573
487
453
431
389
316
127
-263
-778
-1275
-1659
-1912
-2049
-2015
-1760
-1240
-527
76
426
634
823
990
1010
867
680
547
480
437
397
378
430
567
661
598
411
176
-60
-231
-317
-373
-480
-661
-826
-915
-927
-829
-629
-435
-314
-252
-170
-41
29
-2
-78
-171
-278
-376
-443
-459
-364
-112
207
460
614
748
913
1042
1083
1053
982
885
790
732
696
627
507
358
214
97
8
-46
-53
-20
-10
-92
-275
-521
-768
-990
-1168
-1216
-1121
-952
-723
-449
-230
-119
-62
33
199
377
530
653
718
723
689
622
535
417
265
119
-15
-143
-250
-353
-484
-625
-764
-893
-943
-890
-803
-836
-1066
-1288
-1293
-1074
-615
58
723
1248
1653
2008
2340
2458
2243
1785
1263
868
601
349
67
-215
-415
-524
-627
-897
-1444
-2086
-2637
-3062
-3271
-3121
-2605
-1887
-972
125
990
1345
1360
1315
1347
1378
1330
1225
1028
706
403
265
309
505
765
950
1027
1037
969
840
776
841
949
996
952
838
679
493
354
324
315
191
-42
-305
-526
-646
-693
-741
-797
-824
-838
-858
-883
-941
-1041
-1141
-1200
-1271
-1394
-1472
-1476
-1478
-1454
-1299
-1008
-683
-352
25
371
597
758
949
1143
1191
1065
900
806
792
813
821
791
754
751
752
715
610
380
42
-279
-516
-652
-662
-566
-435
-321
-210
-61
125
285
333
294
301
404
528
609
666
709
669
515
270
-93
-538
-864
-983
-968
-888
-818
-820
-835
-704
-307
189
443
431
400
542
846
1080
1094
926
720
596
532
456
351
153
-192
-601
-996
-1378
-1810
-2258
-2453
-2262
-1799
-1308
-1077
-1139
-1294
-1355
-1245
-985
-632
-126
534
1101
1455
1695
1926
2146
2197
2051
1861
1716
1580
1394
1176
998
897
842
778
703
636
594
564
482
335
173
37
-57
-126
-193
-265
-325
-369
-419
-491
-605
-742
-856
-976
-1142
-1379
-1668
-1857
-1843
-1685
-1498
-1338
-1148
-869
-441
125
617
891
997
1008
978
934
885
837
817
850
903
915
854
650
257
-194
-577
-884
-1197
-1533
-1728
-1683
-1474
-1159
-754
-350
-27
249
502
673
762
813
831
828
816
794
764
723
667
593
517
461
409
346
281
223
178
141
103
61
20
-11
-41
-75
-106
-124
-125
-121
-130
-155
-185
-206
-227
-257
-274
-260
-230
-200
-175
-159
-157
-160
-162
-159
-148
-128
-97
-66
-50
-53
-63
-58
-33
-12
4
19
30
27
5
-18
-42
-92
-162
-206
-214
-195
-143
-71
-14
23
57
88
104
101
87
78
84
93
93
89
93
103
110
106
100
100
107
114
107
90
82
78
64
45
23
2
-12
-15
-15
-17
-24
-42
-65
-77
-73
-53
-13
37
67
68
51
15
-43
-96
-127
-157
-213
-280
-286
-208
-96
4
69
88
87
97
114
127
136
140
146
176
225
258
275
296
323
356
366
333
271
183
65
-42
-113
-159
-200
-240
-267
-291
-336
-420
-546
-672
-758
-809
-821
-741
-552
-311
-41
234
428
507
525
544
585
601
564
501
424
323
211
115
45
-20
-102
-163
-178
-173
-190
-231
-253
-221
-152
-56
57
166
251
302
355
460
558
585
539
448
354
283
233
191
111
-47
-224
-346
-452
-679
-1036
-1309
-1382
-1329
-1227
-1114
-994
-861
-685
-462
-247
-42
189
479
792
998
1046
1011
952
891
828
748
652
557
473
386
287
194
106
11
-68
-113
-130
-138
-151
-148
-85
32
173
306
364
319
227
141
66
-10
-89
-181
-280
-332
-313
-266
-259
-310
-359
-364
-335
-299
-280
-296
-324
-333
-294
-208
-139
-115
-97
-58
-8
56
146
234
277
265
224
181
156
141
115
80
53
40
33
29
27
27
29
29
16
-7
-25
-24
-2
17
15
10
24
51
67
63
57
68
96
121
113
73
17
-51
-107
-104
-29
75
121
61
-51
-156
-243
-279
-237
-179
-156
-152
-148
-139
-115
-64
8
67
69
16
-47
-73
-32
54
138
192
226
246
247
240
255
289
303
290
254
193
129
54
-73
-220
-310
-327
-275
-183
-115
-102
-132
-189
-233
-218
-150
-80
-49
-40
-10
53
152
311
490
566
530
461
381
274
162
69
-10
-98
-210
-339
-453
-523
-546
-554
-579
-619
-683
-783
-839
-798
-711
-572
-341
-88
123
311
492
636
694
695
694
694
672
624
558
487
428
379
330
284
254
236
215
185
153
125
93
45
-3
-46
-88
-130
-167
-195
-214
-207
-195
-215
-246
-260
-257
-235
-186
-123
-70
-23
21
44
42
39
53
58
13
-68
-147
-191
-189
-147
-82
-23
0
-25
-97
-186
-254
-291
-316
-330
-293
-206
-111
-32
35
105
179
258
319
339
320
291
263
224
182
153
128
94
49
10
-5
-5
-20
-70
-134
-190
-230
-241
-210
-156
-114
-78
-14
63
97
80
59
72
106
113
90
72
61
49
44
54
69
78
84
93
89
66
28
-7
-17
-2
15
22
17
-3
-43
-86
-117
-131
-127
-114
-90
-45
6
25
12
6
16
25
31
33
39
65
99
118
108
76
40
23
10
-15
-49
-87
-137
-190
-235
-271
-305
-333
-331
-289
-208
-107
-37
0
69
173
255
280
256
215
189
175
159
148
133
102
75
72
75
65
49
44
59
73
69
53
42
42
37
24
15
8
-10
-34
-48
-49
-47
-46
-46
-47
-47
-49
-57
-74
-91
-103
-107
-104
-102
-99
-84
-65
-59
-64
-62
-54
-39
-5
24
25
19
30
49
59
52
33
9
-11
-17
0
26
40
23
-29
-91
-127
-112
-67
-33
-14
26
96
155
170
154
133
141
175
180
138
72
-5
-90
-165
-214
-254
-333
-449
-512
-451
-260
17
292
480
591
667
654
521
354
233
172
162
179
190
154
6
-293
-642
-911
-1065
-1158
-1231
-1209
-1056
-838
-586
-295
-38
150
324
563
850
1024
1047
1029
1028
1026
986
907
790
629
465
325
198
60
-79
-175
-205
-216
-347
-618
-814
-830
-763
-676
-564
-426
-279
-146
-17
112
213
260
273
284
305
315
304
289
296
319
308
252
174
84
-13
-91
-134
-165
-199
-229
-252
-272
-271
-249
-232
-219
-204
-185
-163
-131
-97
-77
-54
12
110
167
162
149
158
165
137
87
48
26
-4
-67
-141
-192
-210
-188
-141
-101
-72
-39
-8
15
27
15
-7
-15
-4
1
-3
0
9
1
-14
-13
-2
-3
-11
-8
1
9
9
10
30
50
47
27
12
12
25
50
91
130
155
173
175
154
119
85
51
13
-36
-97
-172
-275
-383
-436
-417
-368
-322
-289
-256
-183
-54
80
157
157
114
78
72
88
111
141
182
230
272
288
280
273
277
278
254
208
160
135
144
166
176
169
165
178
210
265
315
298
211
128
95
89
58
-5
-44
-52
-80
-165
-294
-407
-459
-466
-504
-605
-678
-678
-665
-678
-665
-542
-326
-100
76
199
270
299
313
337
363
362
338
319
328
382
466
525
527
485
424
352
248
98
-66
-225
-384
-524
-601
-602
-552
-473
-361
-251
-189
-148
-76
22
147
258
222
22
-193
-248
-163
-240
-607
-988
-1059
-797
-426
-113
110
261
351
382
394
435
525
629
667
625
563
554
611
639
593
525
463
411
387
363
237
-29
-313
-495
-572
-543
-401
-197
-13
99
160
202
190
136
120
191
305
350
293
173
5
-226
-479
-584
-446
-389
-815
-1479
-1900
-1974
-1721
-1150
-519
-87
159
334
467
502
466
463
514
569
607
644
666
664
660
658
647
619
553
465
390
342
281
167
35
-52
-75
-102
-189
-257
-251
-220
-208
-212
-185
-105
-3
83
139
148
118
68
24
3
-11
-30
-45
-72
-139
-209
-212
-150
-111
-132
-156
-147
-121
-108
-120
-144
-165
-168
-155
-139
-126
-109
-84
-66
-62
-57
-41
-24
-16
-17
-20
-12
9
32
39
35
39
50
52
47
50
65
81
89
84
71
57
50
59
74
77
70
68
75
81
84
86
73
42
27
41
52
33
-13
-66
-82
-47
1
32
43
37
23
16
21
32
37
32
28
25
15
6
0
-8
-3
21
43
52
69
92
94
70
42
31
30
14
-23
-76
-131
-177
-204
-200
-157
-119
-153
-223
-224
-130
-3
80
101
97
98
90
71
60
60
55
34
7
-11
-19
-16
-7
-5
-12
-26
-33
-20
0
2
-9
-13
1
19
22
23
38
57
69
64
42
19
10
9
-5
-47
-95
-116
-96
-58
-34
-22
0
39
60
51
34
21
8
-6
-19
-28
-22
1
13
1
-13
-24
-40
-49
-39
-29
-21
-1
13
12
1
-8
0
12
16
15
14
5
-9
-15
-4
9
12
9
14
29
48
63
64
56
49
41
30
21
17
25
34
20
-12
-46
-64
-71
-78
-85
-94
-104
-105
-98
-96
-98
-87
-55
-19
-3
-7
-5
13
31
36
35
42
58
72
71
65
65
71
70
55
47
64
89
93
73
51
44
38
31
28
31
41
39
14
-7
-12
-13
-16
-17
-16
-8
9
33
58
72
78
80
58
-1
-77
-132
-154
-149
-132
-125
-122
-100
-57
-26
-32
-68
-105
-97
-36
41
107
151
157
124
91
88
98
76
11
-58
-109
-129
-144
-193
-244
-256
-232
-181
-105
-22
54
137
224
270
240
173
124
102
104
119
134
144
137
104
62
36
23
10
-4
-15
-23
-29
-29
-24
-17
-13
-11
0
16
10
-9
-2
40
83
92
75
68
131
262
349
345
310
265
184
73
-32
-122
-208
-289
-358
-432
-537
-714
-947
-1101
-1114
-1037
-909
-759
-617
-487
-310
-67
154
313
432
528
620
694
732
734
710
673
624
567
517
475
434
386
337
295
258
224
178
123
73
39
16
-10
-40
-63
-80
-94
-114
-144
-175
-195
-200
-198
-194
-189
-174
-141
-101
-79
-76
-78
-85
-112
-144
-168
-173
-152
-134
-136
-142
-137
-119
-98
-84
-75
-65
-55
-39
-15
0
13
44
67
42
-10
-46
-46
-23
0
0
-2
23
46
41
29
6
-36
-62
-51
-23
30
119
199
251
292
353
436
470
414
316
239
193
150
94
31
-35
-103
-150
-148
-108
-87
-134
-254
-420
-594
-722
-738
-638
-473
-257
-26
135
207
232
254
293
334
352
348
356
383
356
217
-4
-295
-605
-769
-737
-619
-463
-283
-130
0
153
330
483
543
512
441
359
282
233
216
208
188
145
78
12
-9
26
84
120
123
105
76
42
20
29
82
156
201
201
183
153
90
-4
-107
-217
-364
-515
-576
-536
-466
-431
-447
-478
-508
-563
-697
-842
-817
-606
-348
-136
-4
48
77
161
321
503
624
669
689
709
718
698
654
599
523
427
343
290
261
238
204
159
111
81
84
106
135
174
230
294
331
304
220
132
60
-22
-116
-196
-245
-261
-245
-189
-123
-134
-361
-806
-1207
-1378
-1410
-1460
-1523
-1497
-1344
-1060
-690
-379
-178
0
238
506
668
690
648
584
515
463
420
356
274
230
279
428
623
759
761
685
617
543
430
329
305
333
371
416
457
471
435
379
370
388
374
316
207
32
-167
-344
-484
-605
-711
-767
-766
-743
-756
-836
-915
-931
-888
-830
-763
-638
-453
-233
34
367
779
1215
1523
1580
1399
1101
803
513
199
-87
-297
-432
-485
-474
-467
-500
-551
-651
-851
-1060
-1176
-1201
-1146
-1034
-949
-897
-749
-362
224
758
1106
1330
1462
1463
1367
1251
1135
1033
963
917
882
838
732
498
128
-305
-719
-1034
-1186
-1199
-1133
-1047
-992
-932
-810
-612
-384
-204
-85
0
118
350
668
976
1198
1321
1358
1284
1128
968
832
708
584
439
267
74
-147
-379
-594
-793
-1022
-1268
-1420
-1499
-1792
-2408
-2921
-2975
-2634
-2008
-1191
-398
256
795
1282
1737
2055
2230
2393
2517
2427
2124
1772
1484
1281
1130
1007
909
758
397
-184
-839
-1440
-1938
-2231
-2187
-1895
-1506
-1021
-561
-376
-452
-552
-555
-480
-364
-266
-326
-513
-548
-351
-125
-82
-263
-519
-713
-775
-628
-338
-101
55
258
603
1020
1289
1384
1476
1713
2062
2278
2262
2109
1874
1584
1286
1014
732
398
57
-242
-494
-697
-850
-962
-1064
-1166
-1263
-1356
-1398
-1324
-1116
-835
-558
-314
-100
122
361
531
590
565
475
334
189
91
59
88
138
135
52
-61
-197
-374
-543
-655
-694
-700
-714
-666
-465
-141
290
785
1081
1035
762
263
-443
-1046
-1365
-1505
-1646
-1865
-2024
-2015
-1796
-1357
-843
-387
-50
125
200
282
414
632
997
1408
1585
1448
1255
1254
1366
1410
1350
1313
1443
1670
1842
1935
2025
2103
2000
1613
960
-40
-1272
-2220
-2647
-2658
-2322
-1787
-1257
-835
-544
-452
-608
-866
-1019
-995
-849
-693
-576
-464
-362
-339
-407
-520
-687
-879
-919
-688
-198
615
1641
2464
3003
3431
3757
3884
3692
3219
2630
1957
1214
556
42
-391
-833
-1319
-1752
-2106
-2570
-3207
-3745
-4024
-4118
-4084
-3886
-3481
-2956
-2365
-1679
-962
-282
321
890
1494
1975
2206
2279
2330
2411
2490
2553
2622
2650
2538
2302
2065
1883
1702
1484
1242
990
702
352
-7
-321
-575
-871
-1323
-1826
-2272
-2651
-2981
-3225
-3229
-2937
-2425
-1828
-1312
-895
-493
-37
458
872
1211
1576
2011
2427
2642
2665
2632
2540
2326
2002
1628
1210
749
287
-177
-663
-1257
-1961
-2516
-2848
-3111
-3417
-3715
-3793
-3618
-3335
-2991
-2520
-1923
-1302
-693
-71
496
966
1336
1561
1648
1636
1546
1459
1512
1705
1836
1758
1501
1190
1019
1076
1312
1798
2494
3021
3204
3177
3056
2850
2506
2072
1635
1173
652
149
-285
-698
-1145
-1562
-1810
-1943
-2130
-2567
-3280
-3951
-4373
-4643
-4785
-4635
-4119
-3310
-2117
-620
574
1162
1497
1908
2346
2675
2876
3026
3154
3129
2921
2635
2294
1897
1506
1147
806
417
-45
-447
-714
-944
-1211
-1480
-1727
-1958
-2321
-2887
-3356
-3529
-3518
-3439
-3217
-2659
-1777
-693
395
1182
1659
2029
2362
2597
2631
2501
2343
2283
2335
2345
2212
1990
1718
1395
1066
761
431
137
114
424
814
1012
971
828
681
442
-194
-1266
-2234
-2768
-3013
-3101
-3022
-2771
-2418
-2095
-1972
-2107
-2456
-2948
-3622
-4410
-4946
-5071
-4728
-3752
-2281
-605
1106
3025
5073
6437
6838
6742
6443
5983
5406
4802
4222
3692
3221
2759
2279
1827
1443
1094
657
95
-569
-1291
-1875
-2202
-2339
-2396
-2450
-2496
-2511
-2566
-2764
-3046
-3312
-3542
-3739
-3816
-3611
-3140
-2467
-1719
-1154
-770
-386
133
846
1589
2212
2692
3057
3300
3331
3183
3017
2920
2841
2684
2444
2169
1863
1530
1222
951
647
276
-66
-314
-513
-741
-990
-1155
-1229
-1296
-1437
-1676
-1925
-2125
-2292
-2394
-2324
-2026
-1605
-1166
-748
-382
13
538
1239
1960
2288
2135
1787
1412
1027
646
286
-13
-293
-638
-947
-1083
-1071
-1060
-1134
-1205
-1245
-1480
-2001
-2468
-2653
-2676
-2606
-2290
-1589
-586
639
1837
2495
2572
2449
2373
2390
2413
2398
2420
2499
2503
2366
2139
1822
1408
993
682
472
232
-162
-706
-1355
-2030
-2685
-3223
-3434
-3339
-3068
-2645
-2155
-1658
-1144
-546
144
752
1206
1604
2085
2615
2923
2969
2906
2740
2418
1988
1536
970
214
-490
-918
-1060
-914
-515
-94
74
-123
-868
-2062
-2980
-3251
-3113
-2685
-1967
-1117
-288
570
1359
1733
1678
1484
1219
778
178
-498
-1188
-1987
-2897
-3473
-3487
-3077
-2364
-1526
-752
-152
193
200
-93
-423
-515
-259
275
903
1568
2347
3439
4768
5660
5789
5493
5074
4556
3933
3277
2557
1717
895
247
-267
-860
-1672
-2565
-3424
-4217
-4982
-5699
-6077
-5951
-5187
-3732
-2097
-765
225
1005
1584
1805
1726
1584
1503
1489
1476
1385
1242
1158
1139
1118
1070
936
666
351
89
-147
-443
-754
-899
-754
-326
302
919
1245
1291
1262
1205
1063
845
612
391
245
256
335
293
61
-268
-571
-843
-1150
-1566
-2049
-2389
-2469
-2319
-2009
-1629
-1243
-874
-499
-74
288
384
144
-388
-1032
-1499
-1708
-1704
-1387
-711
97
859
1587
2168
2325
2057
1643
1244
934
853
1003
1243
1590
2026
2305
2310
2098
1642
984
354
-188
-817
-1903
-3486
-4883
-5730
-6197
-6372
-6186
-5579
-4753
-3904
-3091
-2348
-1478
-294
1266
3043
4530
5601
6582
7404
7568
7061
6334
5615
4888
4116
3271
2347
1294
176
-690
-1243
-1697
-2229
-2784
-3056
-2951
-2572
-1997
-1387
-771
-49
721
1288
1461
1424
1466
1671
1942
2059
1945
1714
1466
1213
896
462
-221
-1159
-2030
-2703
-3290
-3876
-4403
-4635
-4514
-4117
-3526
-2913
-2384
-1950
-1528
-1037
-589
-288
-111
-111
-304
-436
-282
136
818
1660
2317
2654
2836
2945
2910
2711
2405
1919
1246
647
263
-20
-293
-518
-615
-660
-795
-1049
-1331
-1500
-1533
-1520
-1505
-1445
-1257
-897
-483
-261
-266
-320
-305
-196
-2
232
479
744
1139
1667
2019
2053
1943
1902
1954
1876
1565
1148
791
611
573
576
586
581
513
385
209
-129
-705
-1330
-1861
-2318
-2692
-2840
-2602
-2054
-1392
-772
-289
93
445
813
1183
1440
1538
1536
1484
1377
1167
836
450
116
-123
-341
-598
-836
-982
-1018
-929
-726
-443
-22
548
1051
1343
1489
1558
1550
1468
1353
1217
1028
753
404
12
-530
-1244
-1833
-2159
-2386
-2705
-3123
-3388
-3357
-3058
-2579
-2068
-1552
-938
-128
778
1440
1775
1943
2016
2021
1966
1852
1684
1505
1390
1363
1370
1342
1216
1013
853
823
916
1001
857
403
-262
-1201
-2366
-3214
-3408
-3058
-2407
-1759
-1263
-907
-633
-410
-272
-222
-228
-243
-183
-32
160
397
726
1089
1348
1502
1622
1782
1985
2048
1906
1632
1226
741
291
-64
-427
-899
-1363
-1709
-1924
-1961
-1778
-1413
-936
-286
500
1041
1150
1027
908
915
1029
1167
1245
1185
999
819
722
675
561
249
-258
-900
-1609
-2380
-3068
-3252
-2863
-2163
-1339
-566
120
778
1396
1851
1958
1790
1572
1398
1291
1226
1144
1023
812
479
101
-253
-593
-1089
-1791
-2324
-2466
-2325
-2034
-1723
-1440
-1134
-730
-276
22
94
84
144
274
348
343
377
604
1047
1475
1708
1770
1685
1451
1157
919
787
744
719
668
600
531
452
348
239
159
136
167
185
136
29
-125
-300
-460
-614
-772
-981
-1266
-1502
-1571
-1484
-1320
-1162
-1047
-965
-834
-614
-380
-191
-47
71
174
257
333
415
487
524
512
468
423
380
337
301
271
216
129
64
67
125
193
223
208
181
184
211
209
157
95
53
7
-83
-182
-206
-127
11
135
185
183
189
226
269
261
185
64
-64
-159
-186
-166
-157
-204
-293
-325
-246
-79
146
343
349
121
-228
-592
-868
-936
-830
-681
-505
-279
-81
25
66
98
145
191
235
287
365
466
539
585
637
673
649
576
503
446
369
267
202
195
189
131
32
-42
-76
-92
-105
-148
-236
-336
-426
-477
-454
-397
-417
-646
-1053
-1384
-1502
-1463
-1317
-1094
-838
-569
-237
160
503
740
920
1048
1091
1048
990
964
937
860
744
629
542
505
506
487
426
353
285
209
122
41
-10
-27
-29
-31
-35
-39
-55
-91
-128
-148
-154
-168
-193
-211
-226
-285
-406
-496
-484
-415
-346
-278
-213
-184
-196
-222
-247
-265
-278
-301
-346
-391
-371
-289
-208
-136
-47
25
45
44
61
95
117
128
143
169
198
212
213
227
249
257
249
243
252
271
270
222
153
107
77
45
52
129
233
280
243
175
113
47
-72
-248
-379
-408
-391
-424
-529
-599
-557
-423
-249
-103
-5
61
110
143
147
137
146
160
157
146
150
177
206
211
169
107
85
115
148
150
127
93
79
106
135
142
166
214
220
126
-31
-151
-166
-109
-61
-46
-31
-19
-35
-60
-85
-130
-232
-388
-512
-552
-536
-497
-446
-387
-318
-229
-104
52
189
266
290
288
303
345
385
398
385
348
298
254
210
160
145
191
265
321
336
299
236
176
104
6
-98
-207
-337
-504
-668
-735
-673
-519
-314
-121
2
59
85
98
87
50
7
-12
-13
-6
26
78
115
136
167
202
201
147
34
-118
-257
-338
-338
-257
-147
-78
-60
-61
-61
-38
22
91
133
150
153
150
145
149
162
170
164
149
135
130
112
51
-52
-144
-113
70
255
316
291
262
262
271
280
299
279
161
-20
-194
-386
-615
-771
-784
-713
-654
-646
-619
-544
-456
-295
-65
59
58
85
185
264
242
161
94
70
85
112
127
122
115
133
173
208
219
220
239
295
373
436
469
489
471
367
207
59
-43
-101
-121
-119
-125
-168
-223
-249
-203
-86
2
3
-16
10
61
78
73
91
179
318
389
360
303
205
39
-121
-222
-275
-368
-575
-815
-960
-948
-769
-501
-283
-163
-121
-145
-209
-305
-422
-477
-292
173
626
843
879
853
827
783
702
592
438
246
92
6
-44
-92
-159
-250
-352
-451
-629
-930
-1185
-1282
-1229
-999
-633
-236
133
498
832
1014
1028
963
887
821
748
674
617
567
507
441
375
312
259
222
191
152
99
47
1
-57
-126
-180
-222
-285
-374
-442
-449
-416
-396
-381
-312
-172
-39
-13
-59
-79
-79
-117
-183
-244
-320
-510
-788
-932
-865
-697
-469
-202
19
169
262
290
279
265
259
247
211
178
179
206
232
247
267
274
221
108
-6
-69
-69
-32
25
85
109
77
25
10
51
145
293
459
573
589
502
365
223
73
-80
-221
-380
-565
-712
-734
-603
-442
-385
-412
-391
-243
-48
73
76
-16
-113
-140
-105
-66
-73
-142
-223
-225
-93
121
295
368
371
376
425
484
520
532
512
471
419
366
326
316
322
300
264
248
219
130
11
-70
-99
-91
-65
-50
-64
-86
-102
-123
-147
-166
-197
-243
-289
-324
-352
-353
-315
-292
-333
-407
-439
-432
-464
-529
-547
-519
-492
-459
-403
-340
-304
-301
-275
-192
-81
26
96
93
38
8
61
168
247
274
288
264
170
85
83
154
295
479
627
680
650
614
625
623
563
444
254
32
-139
-244
-290
-242
-123
-8
65
133
225
297
322
324
303
234
132
66
54
17
-68
-139
-172
-182
-183
-180
-170
-134
-73
-20
4
3
-21
-61
-99
-116
-113
-120
-149
-161
-127
-87
-87
-114
-152
-203
-231
-202
-138
-76
-24
-2
-10
-5
31
59
35
-26
-79
-86
-58
-55
-94
-131
-125
-76
-13
41
71
61
12
-46
-88
-105
-123
-165
-217
-252
-247
-197
-127
-55
12
61
91
124
164
209
289
395
432
380
323
323
373
404
389
355
310
246
173
104
32
-123
-384
-591
-617
-510
-367
-238
-128
-42
21
84
143
157
118
74
65
71
58
28
-3
-30
-41
-6
52
70
26
-42
-100
-139
-155
-151
-149
-162
-169
-149
-130
-148
-170
-128
-24
67
95
75
59
82
132
176
192
188
177
159
141
113
57
-53
-191
-241
-176
-104
-132
-237
-283
-221
-136
-93
-87
-91
-72
-9
80
145
150
125
120
154
202
205
155
104
98
121
116
73
26
-4
-8
6
18
20
22
23
12
0
3
7
-9
-35
-26
36
115
165
172
140
80
-10
-122
-223
-301
-378
-460
-500
-451
-346
-247
-138
5
121
178
211
229
223
195
159
128
117
133
162
186
191
170
132
104
89
78
63
43
23
4
-10
-18
-28
-34
-42
-67
-79
-46
-12
-17
-40
-51
-47
-43
-36
-19
-3
1
4
15
21
17
16
14
-4
-37
-70
-95
-124
-164
-203
-227
-221
-189
-139
-77
-19
27
73
112
132
131
111
89
91
116
128
118
105
102
94
83
73
65
62
60
45
16
-5
0
20
30
25
1
-28
-51
-83
-134
-182
-208
-239
-270
-233
-127
-21
37
55
62
78
99
121
138
135
116
96
85
80
63
38
27
37
50
47
28
15
33
70
74
34
-2
-9
-11
-48
-104
-128
-128
-150
-187
-195
-160
-97
-37
5
32
47
55
61
74
100
140
159
128
70
12
-31
-81
-155
-216
-239
-246
-258
-257
-195
-68
70
161
179
157
127
79
23
0
1
-4
-27
-49
-40
-1
20
9
-4
5
33
64
83
86
74
63
63
68
69
64
57
59
70
73
53
30
31
58
81
84
72
53
47
46
28
6
-13
-30
-22
21
61
52
23
16
23
16
-17
-71
-138
-212
-270
-289
-275
-260
-238
-169
-59
39
85
77
60
66
80
84
77
53
15
-6
-6
-5
-8
0
19
14
-8
-7
28
56
42
16
16
41
68
77
65
43
29
31
43
49
51
55
52
46
47
59
78
114
150
136
68
-15
-82
-113
-115
-138
-228
-377
-512
-523
-401
-237
-98
-11
22
37
72
125
164
175
169
160
150
128
103
96
108
88
20
-7
39
99
131
129
106
85
87
109
126
115
70
18
26
93
119
71
8
-48
-141
-264
-335
-316
-263
-228
-183
-106
-16
53
74
53
19
-17
-55
-76
-64
-35
-10
-7
-10
8
42
68
84
98
107
109
108
112
113
99
84
98
118
96
44
5
-6
-12
-28
-47
-56
-53
-42
-36
-45
-55
-54
-56
-65
-73
-73
-57
-27
-9
-5
5
22
31
27
19
21
31
28
10
-14
-46
-116
-213
-246
-198
-133
-92
-75
-58
-25
25
80
114
119
113
103
82
48
15
1
22
63
93
95
77
60
52
48
49
52
53
46
33
27
27
32
27
-2
-51
-100
-136
-151
-137
-92
-36
4
18
4
-12
-4
21
34
32
28
22
19
37
76
92
77
68
72
66
45
22
12
8
-11
-49
-71
-63
-60
-101
-150
-159
-132
-73
-4
14
-23
-68
-97
-119
-130
-98
-25
41
68
63
55
61
88
121
125
98
73
58
40
21
12
13
23
36
34
21
18
27
37
38
30
19
4
-11
-20
-10
12
31
34
25
18
20
17
0
-24
-44
-44
-36
-41
-56
-63
-51
-26
-5
-4
-14
-13
-5
-6
-16
-27
-25
-10
5
17
22
31
42
40
31
27
30
33
27
6
-14
-11
4
6
-2
-6
-5
-6
-18
-35
-35
-19
-3
2
-8
-30
-47
-51
-48
-51
-67
-80
-71
-41
-16
-7
-2
-2
-4
-3
-1
3
11
20
21
18
14
0
-26
-50
-57
-36
-4
15
26
31
29
34
53
75
91
103
101
83
62
47
34
21
20
17
7
0
0
1
0
-5
-10
-15
-21
-29
-35
-29
-20
-24
-36
-49
-51
-36
-24
-29
-45
-42
-5
30
53
73
79
64
36
7
-14
-28
-36
-37
-30
-16
-7
-9
-25
-42
-47
-36
-21
-11
-11
-15
-9
2
8
1
-9
-14
-12
-18
-32
-42
-48
-49
-34
-9
8
16
20
21
21
29
46
57
57
50
42
44
51
43
26
18
22
28
34
39
42
43
43
39
32
32
38
47
49
36
15
10
19
18
1
-11
0
21
18
4
-1
-11
-32
-49
-50
-39
-36
-49
-64
-65
-57
-67
-110
-157
-185
-200
-215
-221
-204
-185
-175
-128
-21
89
176
260
320
325
286
231
183
142
105
92
108
137
160
155
120
80
71
84
78
32
-39
-114
-173
-201
-206
-212
-251
-324
-371
-369
-338
-313
-318
-332
-317
-252
-143
-36
36
86
120
146
179
203
202
199
219
260
