x-axis,1,2
second,Volt,Volt
-2.700000E+00,-39.950E-03,-559E-06
-2.697300E+00,-60.050E-03,-5.182E-03
-2.694600E+00,+251E-06,-4.579E-03
-2.691900E+00,-145.477E-03,-2.318E-03
-2.689200E+00,+35.427E-03,-559E-06
-2.686500E+00,-120.352E-03,+44E-06
-2.683800E+00,-39.950E-03,-509E-06
-2.681100E+00,+20.352E-03,-2.569E-03
-2.678400E+00,-200.754E-03,-2.971E-03
-2.675700E+00,+40.452E-03,-2.720E-03
-2.673000E+00,-80.151E-03,-2.569E-03
-2.670300E+00,-185.678E-03,-2.770E-03
-2.667600E+00,+35.427E-03,-1.313E-03
-2.664900E+00,-160.553E-03,-3.323E-03
-2.662200E+00,-125.377E-03,-2.971E-03
-2.659500E+00,-120.352E-03,-3.926E-03
-2.656800E+00,-44.975E-03,-1.313E-03
-2.654100E+00,-120.352E-03,-559E-06
-2.651400E+00,-85.176E-03,-911E-06
-2.648700E+00,-185.678E-03,-2.318E-03
-2.646000E+00,-39.950E-03,-2.167E-03
-2.643300E+00,-100.251E-03,-3.172E-03
-2.640600E+00,-85.176E-03,-2.971E-03
-2.637900E+00,-140.452E-03,+94E-06
-2.635200E+00,-120.352E-03,-559E-06
-2.632500E+00,+15.327E-03,-2.318E-03
-2.629800E+00,-80.151E-03,-2.921E-03
-2.627100E+00,-39.950E-03,-3.775E-03
-2.624400E+00,-120.352E-03,-2.921E-03
-2.621700E+00,-65.075E-03,-760E-06
-2.619000E+00,-39.950E-03,-911E-06
-2.616300E+00,-80.151E-03,-710E-06
-2.613600E+00,+40.452E-03,-3.725E-03
-2.610900E+00,-100.251E-03,-4.780E-03
-2.608200E+00,-120.352E-03,-2.569E-03
-2.605500E+00,-200.754E-03,-961E-06
-2.602800E+00,+35.427E-03,-1.313E-03
-2.600100E+00,-160.553E-03,-157E-06
-2.597400E+00,-44.975E-03,-2.569E-03
-2.594700E+00,-105.276E-03,-3.122E-03
-2.592000E+00,-120.352E-03,-3.775E-03
-2.589300E+00,-80.151E-03,-1.112E-03
-2.586600E+00,-120.352E-03,-911E-06
-2.583900E+00,-165.578E-03,-1.966E-03
-2.581200E+00,-44.975E-03,-1.363E-03
-2.578500E+00,-65.075E-03,-3.323E-03
-2.575800E+00,-120.352E-03,-3.323E-03
-2.573100E+00,-39.950E-03,-1.514E-03
-2.570400E+00,-44.975E-03,+1.049E-03
-2.567700E+00,+15.327E-03,-1.916E-03
-2.565000E+00,-39.950E-03,-2.971E-03
-2.562300E+00,-39.950E-03,-2.519E-03
-2.559600E+00,+35.427E-03,-2.921E-03
-2.556900E+00,-65.075E-03,-961E-06
-2.554200E+00,-160.553E-03,-1.363E-03
-2.551500E+00,-60.050E-03,-1.162E-03
-2.548800E+00,+35.427E-03,-1.363E-03
-2.546100E+00,-39.950E-03,-3.775E-03
-2.543400E+00,-80.151E-03,-2.971E-03
-2.540700E+00,-60.050E-03,-1.363E-03
-2.538000E+00,-120.352E-03,-509E-06
-2.535300E+00,-180.653E-03,-559E-06
-2.532600E+00,+251E-06,-1.715E-03
-2.529900E+00,-39.950E-03,-3.373E-03
-2.527200E+00,-120.352E-03,-5.333E-03
-2.524500E+00,-4.774E-03,-2.519E-03
-2.521800E+00,-120.352E-03,-1.765E-03
-2.519100E+00,-140.452E-03,-1.112E-03
-2.516400E+00,-120.352E-03,-1.363E-03
-2.513700E+00,+15.327E-03,-1.916E-03
-2.511000E+00,-125.377E-03,-3.775E-03
-2.508300E+00,-19.849E-03,-2.167E-03
-2.505600E+00,-120.352E-03,-1.313E-03
-2.502900E+00,-4.774E-03,+44E-06
-2.500200E+00,-80.151E-03,-559E-06
-2.497500E+00,-105.276E-03,-3.373E-03
-2.494800E+00,-120.352E-03,-2.167E-03
-2.492100E+00,-100.251E-03,-2.569E-03
-2.489400E+00,+40.452E-03,-1.765E-03
-2.486700E+00,-185.678E-03,+898E-06
-2.484000E+00,-120.352E-03,-559E-06
-2.481300E+00,-180.653E-03,-2.720E-03
-2.478600E+00,+40.452E-03,-3.775E-03
-2.475900E+00,-185.678E-03,-3.574E-03
-2.473200E+00,-125.377E-03,+245E-06
-2.470500E+00,-100.251E-03,+496E-06
-2.467800E+00,-39.950E-03,-559E-06
-2.465100E+00,-60.050E-03,-1.363E-03
-2.462400E+00,-39.950E-03,-3.775E-03
-2.459700E+00,-100.251E-03,-3.775E-03
-2.457000E+00,-85.176E-03,-559E-06
-2.454300E+00,-165.578E-03,-1.765E-03
-2.451600E+00,+35.427E-03,-1.313E-03
-2.448900E+00,-39.950E-03,-2.167E-03
-2.446200E+00,-39.950E-03,-6.539E-03
-2.443500E+00,-24.874E-03,-10.810E-03
-2.440800E+00,-39.950E-03,-10.961E-03
-2.438100E+00,-205.779E-03,-10.760E-03
-2.435400E+00,-281.156E-03,-157E-06
-2.432700E+00,-346.482E-03,+4.868E-03
-2.430000E+00,-200.754E-03,+5.873E-03
-2.427300E+00,-4.774E-03,+8.536E-03
-2.424600E+00,-80.151E-03,+6.325E-03
-2.421900E+00,-60.050E-03,+7.079E-03
-2.419200E+00,-125.377E-03,+14.768E-03
-2.416500E+00,-39.950E-03,+11.300E-03
-2.413800E+00,+120.854E-03,-5.333E-03
-2.411100E+00,-105.276E-03,+2.506E-03
-2.408400E+00,-120.352E-03,-1.313E-03
-2.405700E+00,-120.352E-03,-157E-06
-2.403000E+00,-85.176E-03,+3.059E-03
-2.400300E+00,-39.950E-03,-1.363E-03
-2.397600E+00,-39.950E-03,+245E-06
-2.394900E+00,-65.075E-03,-3.926E-03
-2.392200E+00,-39.950E-03,-2.971E-03
-2.389500E+00,-105.276E-03,-3.122E-03
-2.386800E+00,-200.754E-03,-6.941E-03
-2.384100E+00,-80.151E-03,-9.956E-03
-2.381400E+00,-80.151E-03,-10.559E-03
-2.378700E+00,+251E-06,-11.162E-03
-2.376000E+00,-120.352E-03,-11.011E-03
-2.373300E+00,-160.553E-03,-9.403E-03
-2.370600E+00,-80.151E-03,-3.323E-03
-2.367900E+00,+251E-06,-2.167E-03
-2.365200E+00,-44.975E-03,-4.579E-03
-2.362500E+00,-19.849E-03,-5.584E-03
-2.359800E+00,-39.950E-03,-5.383E-03
-2.357100E+00,+75.628E-03,-3.775E-03
-2.354400E+00,-200.754E-03,-2.167E-03
-2.351700E+00,-100.251E-03,-2.720E-03
-2.349000E+00,-160.553E-03,-961E-06
-2.346300E+00,-39.950E-03,-1.715E-03
-2.343600E+00,-39.950E-03,-509E-06
-2.340900E+00,-100.251E-03,+697E-06
-2.338200E+00,-85.176E-03,+2.305E-03
-2.335500E+00,-120.352E-03,+2.054E-03
-2.332800E+00,+35.427E-03,-509E-06
-2.330100E+00,-80.151E-03,-2.720E-03
-2.327400E+00,-80.151E-03,-2.519E-03
-2.324700E+00,-65.075E-03,-1.966E-03
-2.322000E+00,-120.352E-03,+1.049E-03
-2.319300E+00,-39.950E-03,-107E-06
-2.316600E+00,-39.950E-03,-911E-06
-2.313900E+00,+251E-06,-2.569E-03
-2.311200E+00,-120.352E-03,-2.167E-03
-2.308500E+00,-39.950E-03,-2.569E-03
-2.305800E+00,-39.950E-03,+1.049E-03
-2.303100E+00,-120.352E-03,-2.971E-03
-2.300400E+00,-446.985E-03,+23.562E-03
-2.297700E+00,-200.754E-03,+24.165E-03
-2.295000E+00,+281.658E-03,+7.933E-03
-2.292300E+00,+537.940E-03,-31.715E-03
-2.289600E+00,+201.256E-03,-43.172E-03
-2.286900E+00,-823.869E-03,+3.662E-03
-2.284200E+00,-522.362E-03,+17.129E-03
-2.281500E+00,-24.874E-03,-1.363E-03
-2.278800E+00,-120.352E-03,+8.335E-03
-2.276100E+00,+281.658E-03,-13.976E-03
-2.273400E+00,+120.854E-03,-8.599E-03
-2.270700E+00,+301.759E-03,-18.398E-03
-2.268000E+00,-281.156E-03,-6.187E-03
-2.265300E+00,-487.186E-03,+21.149E-03
-2.262600E+00,-165.578E-03,+11.903E-03
-2.259900E+00,+236.432E-03,+3.109E-03
-2.257200E+00,+839.447E-03,-48.750E-03
-2.254500E+00,-240.955E-03,-35.132E-03
-2.251800E+00,-969.598E-03,+25.220E-03
-2.249100E+00,-120.352E-03,+13.562E-03
-2.246400E+00,+357.035E-03,-7.795E-03
-2.243700E+00,-19.849E-03,-2.167E-03
-2.241000E+00,-160.553E-03,+3.461E-03
-2.238300E+00,-240.955E-03,+10.697E-03
-2.235600E+00,+40.452E-03,-2.971E-03
-2.232900E+00,+201.256E-03,-12.368E-03
-2.230200E+00,-200.754E-03,-2.167E-03
-2.227500E+00,-60.050E-03,-2.318E-03
-2.224800E+00,+35.427E-03,-4.579E-03
-2.222100E+00,-240.955E-03,-1.112E-03
-2.219400E+00,-160.553E-03,+245E-06
-2.216700E+00,-65.075E-03,-1.112E-03
-2.214000E+00,-120.352E-03,-5.333E-03
-2.211300E+00,-120.352E-03,-2.971E-03
-2.208600E+00,-85.176E-03,-4.981E-03
-2.205900E+00,-19.849E-03,-911E-06
-2.203200E+00,-281.156E-03,+5.873E-03
-2.200500E+00,+15.327E-03,+5.923E-03
-2.197800E+00,+40.452E-03,-5.383E-03
-2.195100E+00,-105.276E-03,+898E-06
-2.192400E+00,-39.950E-03,-2.167E-03
-2.189700E+00,-85.176E-03,+6.878E-03
-2.187000E+00,-160.553E-03,+11.099E-03
-2.184300E+00,+276.633E-03,-9.755E-03
-2.181600E+00,-522.362E-03,+14.717E-03
-2.178900E+00,+336.935E-03,-16.991E-03
-2.176200E+00,+40.452E-03,-23.474E-03
-2.173500E+00,-482.161E-03,+5.471E-03
-2.170800E+00,-44.975E-03,-6.137E-03
-2.168100E+00,-39.950E-03,-10.207E-03
-2.165400E+00,+276.633E-03,-26.639E-03
-2.162700E+00,-80.151E-03,-32.720E-03
-2.160000E+00,-366.583E-03,-10.961E-03
-2.157300E+00,-562.563E-03,+11.903E-03
-2.154600E+00,-366.583E-03,+26.828E-03
-2.151900E+00,-240.955E-03,+35.823E-03
-2.149200E+00,+517.839E-03,+9.139E-03
-2.146500E+00,+799.246E-03,-34.881E-03
-2.143800E+00,+321.859E-03,-45.986E-03
-2.141100E+00,-743.467E-03,+4.466E-03
-2.138400E+00,-607.789E-03,+24.416E-03
-2.135700E+00,-19.849E-03,+8.285E-03
-2.133000E+00,-80.151E-03,+15.521E-03
-2.130300E+00,+156.030E-03,+7.933E-03
-2.127600E+00,+683.668E-03,-38.298E-03
-2.124900E+00,-381.658E-03,-5.986E-03
-2.122200E+00,-728.392E-03,+27.582E-03
-2.119500E+00,-286.181E-03,+39.491E-03
-2.116800E+00,+196.231E-03,+17.180E-03
-2.114100E+00,+1.065578E+00,-48.549E-03
-2.111400E+00,+362.060E-03,-58.046E-03
-2.108700E+00,-763.568E-03,-16.639E-03
-2.106000E+00,-688.191E-03,+7.481E-03
-2.103300E+00,-406.784E-03,+9.541E-03
-2.100600E+00,-80.151E-03,+6.325E-03
-2.097900E+00,+251E-06,+3.461E-03
-2.095200E+00,-39.950E-03,+2.707E-03
-2.092500E+00,+40.452E-03,+2.305E-03
-2.089800E+00,-85.176E-03,+2.707E-03
-2.087100E+00,-165.578E-03,+3.310E-03
-2.084400E+00,-39.950E-03,+245E-06
-2.081700E+00,-100.251E-03,+1.049E-03
-2.079000E+00,-80.151E-03,-961E-06
-2.076300E+00,-39.950E-03,-710E-06
-2.073600E+00,-44.975E-03,-1.363E-03
-2.070900E+00,-65.075E-03,-1.916E-03
-2.068200E+00,-120.352E-03,-961E-06
-2.065500E+00,-105.276E-03,-4.579E-03
-2.062800E+00,-120.352E-03,-2.167E-03
-2.060100E+00,-140.452E-03,-2.318E-03
-2.057400E+00,-120.352E-03,-157E-06
-2.054700E+00,-120.352E-03,-1.363E-03
-2.052000E+00,-44.975E-03,+1.049E-03
-2.049300E+00,-65.075E-03,-1.514E-03
-2.046600E+00,+251E-06,-6.589E-03
-2.043900E+00,-39.950E-03,-8.197E-03
-2.041200E+00,-39.950E-03,-8.599E-03
-2.038500E+00,-180.653E-03,-10.358E-03
-2.035800E+00,-165.578E-03,-6.941E-03
-2.033100E+00,-120.352E-03,-8.800E-03
-2.030400E+00,-120.352E-03,-7.745E-03
-2.027700E+00,-65.075E-03,-5.785E-03
-2.025000E+00,-85.176E-03,-4.579E-03
-2.022300E+00,-39.950E-03,-2.770E-03
-2.019600E+00,-44.975E-03,-4.579E-03
-2.016900E+00,-39.950E-03,-3.976E-03
-2.014200E+00,-85.176E-03,-3.775E-03
-2.011500E+00,-80.151E-03,-2.167E-03
-2.008800E+00,-44.975E-03,-509E-06
-2.006100E+00,-4.774E-03,+2.456E-03
-2.003400E+00,-80.151E-03,+4.667E-03
-2.000700E+00,-85.176E-03,+2.255E-03
-1.998000E+00,-39.950E-03,+1.049E-03
-1.995300E+00,-120.352E-03,+5.069E-03
-1.992600E+00,-683.166E-03,+39.642E-03
-1.989900E+00,+422.362E-03,+16.577E-03
-1.987200E+00,+603.266E-03,-19.001E-03
-1.984500E+00,+864.573E-03,-60.861E-03
-1.981800E+00,-522.362E-03,-31.112E-03
-1.979100E+00,-864.070E-03,+8.084E-03
-1.976400E+00,-286.181E-03,+13.964E-03
-1.973700E+00,+236.432E-03,-9.956E-03
-1.971000E+00,+201.256E-03,-25.886E-03
-1.968300E+00,-607.789E-03,+17.330E-03
-1.965600E+00,+35.427E-03,+295E-06
-1.962900E+00,-306.281E-03,+17.129E-03
-1.960200E+00,-39.950E-03,+12.707E-03
-1.957500E+00,+241.457E-03,+3.310E-03
-1.954800E+00,+120.854E-03,-1.313E-03
-1.952100E+00,-100.251E-03,+647E-06
-1.949400E+00,-39.950E-03,-3.725E-03
-1.946700E+00,-60.050E-03,-6.589E-03
-1.944000E+00,-200.754E-03,+245E-06
-1.941300E+00,+40.452E-03,-11.815E-03
-1.938600E+00,-85.176E-03,-10.207E-03
-1.935900E+00,+135.930E-03,-25.835E-03
-1.933200E+00,-522.362E-03,-2.167E-03
-1.930500E+00,-441.960E-03,+5.873E-03
-1.927800E+00,-39.950E-03,+245E-06
-1.925100E+00,+201.256E-03,-17.393E-03
-1.922400E+00,+40.452E-03,-23.876E-03
-1.919700E+00,-542.462E-03,+5.069E-03
-1.917000E+00,-286.181E-03,+13.562E-03
-1.914300E+00,+55.528E-03,+1.300E-03
-1.911600E+00,-39.950E-03,+1.853E-03
-1.908900E+00,-19.849E-03,+4.516E-03
-1.906200E+00,-4.774E-03,+3.059E-03
-1.903500E+00,+55.528E-03,-911E-06
-1.900800E+00,-200.754E-03,-559E-06
-1.898100E+00,-65.075E-03,-961E-06
-1.895400E+00,-200.754E-03,-2.519E-03
-1.892700E+00,-105.276E-03,-559E-06
-1.890000E+00,-44.975E-03,-6.941E-03
-1.887300E+00,-160.553E-03,+2.858E-03
-1.884600E+00,-120.352E-03,+4.315E-03
-1.881900E+00,+40.452E-03,-911E-06
-1.879200E+00,-120.352E-03,-5.383E-03
-1.876500E+00,-160.553E-03,-961E-06
-1.873800E+00,-165.578E-03,-2.569E-03
-1.871100E+00,-160.553E-03,-157E-06
-1.868400E+00,-120.352E-03,+1.049E-03
-1.865700E+00,-120.352E-03,+94E-06
-1.863000E+00,+75.628E-03,-3.775E-03
-1.860300E+00,+55.528E-03,-13.423E-03
-1.857600E+00,+40.452E-03,-14.981E-03
-1.854900E+00,-341.457E-03,-961E-06
-1.852200E+00,-361.558E-03,+10.697E-03
-1.849500E+00,+156.030E-03,-7.343E-03
-1.846800E+00,+517.839E-03,-31.062E-03
-1.844100E+00,-482.161E-03,-8.197E-03
-1.841400E+00,-969.598E-03,+52.908E-03
-1.838700E+00,+316.834E-03,+6.124E-03
-1.836000E+00,-120.352E-03,+17.933E-03
-1.833300E+00,+256.533E-03,+2.305E-03
-1.830600E+00,+362.060E-03,-16.639E-03
-1.827900E+00,+281.658E-03,-29.454E-03
-1.825200E+00,+442.462E-03,-60.861E-03
-1.822500E+00,-1.874121E+00,+66.979E-03
-1.819800E+00,-406.784E-03,+44.466E-03
-1.817100E+00,+517.839E-03,+4.717E-03
-1.814400E+00,+759.045E-03,-22.268E-03
-1.811700E+00,+417.337E-03,-42.569E-03
-1.809000E+00,-361.558E-03,-34.328E-03
-1.806300E+00,-728.392E-03,+27.833E-03
-1.803600E+00,+281.658E-03,-18.247E-03
-1.800900E+00,-281.156E-03,+11.954E-03
-1.798200E+00,-326.382E-03,+28.838E-03
-1.795500E+00,+563.065E-03,-19.001E-03
-1.792800E+00,+281.658E-03,-33.524E-03
-1.790100E+00,-823.869E-03,+19.139E-03
-1.787400E+00,-567.588E-03,+39.290E-03
-1.784700E+00,+522.864E-03,+898E-06
-1.782000E+00,+522.864E-03,-19.856E-03
-1.779300E+00,+683.668E-03,-52.368E-03
-1.776600E+00,-441.960E-03,-27.494E-03
-1.773900E+00,-441.960E-03,-20.459E-03
-1.771200E+00,-924.372E-03,+18.737E-03
-1.768500E+00,-467.085E-03,+32.657E-03
-1.765800E+00,+236.432E-03,+8.335E-03
-1.763100E+00,+261.558E-03,+2.255E-03
-1.760400E+00,+201.256E-03,+1.049E-03
-1.757700E+00,+75.628E-03,-2.971E-03
-1.755000E+00,+40.452E-03,-4.177E-03
-1.752300E+00,-245.980E-03,+7.330E-03
-1.749600E+00,+35.427E-03,-559E-06
-1.746900E+00,-120.352E-03,-3.574E-03
-1.744200E+00,-80.151E-03,-3.323E-03
-1.741500E+00,+20.352E-03,-10.609E-03
-1.738800E+00,-120.352E-03,-8.599E-03
-1.736100E+00,-200.754E-03,-6.589E-03
-1.733400E+00,-281.156E-03,+3.059E-03
-1.730700E+00,-39.950E-03,-2.720E-03
-1.728000E+00,+115.829E-03,-8.549E-03
-1.725300E+00,-225.879E-03,+2.104E-03
-1.722600E+00,+40.452E-03,-7.745E-03
-1.719900E+00,-140.452E-03,-2.318E-03
-1.717200E+00,-120.352E-03,-2.167E-03
-1.714500E+00,-185.678E-03,+6.526E-03
-1.711800E+00,-120.352E-03,+4.667E-03
-1.709100E+00,-80.151E-03,+14.114E-03
-1.706400E+00,-200.754E-03,+14.717E-03
-1.703700E+00,+120.854E-03,+2.104E-03
-1.701000E+00,+201.256E-03,-14.579E-03
-1.698300E+00,-105.276E-03,-10.006E-03
-1.695600E+00,-125.377E-03,-4.579E-03
-1.692900E+00,+40.452E-03,-10.207E-03
-1.690200E+00,-205.779E-03,-1.363E-03
-1.687500E+00,-24.874E-03,-6.137E-03
-1.684800E+00,-281.156E-03,+1.049E-03
-1.682100E+00,-100.251E-03,+2.908E-03
-1.679400E+00,+251E-06,-157E-06
-1.676700E+00,-105.276E-03,-3.574E-03
-1.674000E+00,-281.156E-03,+9.089E-03
-1.671300E+00,+402.261E-03,-23.021E-03
-1.668600E+00,-522.362E-03,+13.109E-03
-1.665900E+00,+135.930E-03,+697E-06
-1.663200E+00,-200.754E-03,-2.167E-03
-1.660500E+00,+55.528E-03,+6.928E-03
-1.657800E+00,+321.859E-03,-27.896E-03
-1.655100E+00,-642.965E-03,+19.139E-03
-1.652400E+00,-527.387E-03,+34.818E-03
-1.649700E+00,+683.668E-03,-17.795E-03
-1.647000E+00,+442.462E-03,-41.112E-03
-1.644300E+00,+120.854E-03,-43.574E-03
-1.641600E+00,-1.492211E+00,+49.240E-03
-1.638900E+00,-200.754E-03,+22.607E-03
-1.636200E+00,+316.834E-03,+1.903E-03
-1.633500E+00,+362.060E-03,-20.660E-03
-1.630800E+00,-200.754E-03,-9.353E-03
-1.628100E+00,-361.558E-03,+4.064E-03
-1.625400E+00,-245.980E-03,+6.677E-03
-1.622700E+00,+140.955E-03,-13.021E-03
-1.620000E+00,-366.583E-03,+16.325E-03
-1.617300E+00,+442.462E-03,-26.840E-03
-1.614600E+00,-401.759E-03,+4.315E-03
-1.611900E+00,+40.452E-03,-15.182E-03
-1.609200E+00,-281.156E-03,+2.657E-03
-1.606500E+00,-65.075E-03,-3.323E-03
-1.603800E+00,-4.774E-03,-9.001E-03
-1.601100E+00,-185.678E-03,-760E-06
-1.598400E+00,-441.960E-03,+19.592E-03
-1.595700E+00,+281.658E-03,-9.956E-03
-1.593000E+00,+362.060E-03,-25.835E-03
-1.590300E+00,-321.357E-03,-14.227E-03
-1.587600E+00,-441.960E-03,+245E-06
-1.584900E+00,-180.653E-03,-157E-06
-1.582200E+00,-361.558E-03,+20.345E-03
-1.579500E+00,-4.774E-03,+16.778E-03
-1.576800E+00,+120.854E-03,-4.579E-03
-1.574100E+00,-185.678E-03,+21.954E-03
-1.571400E+00,-4.774E-03,+13.964E-03
-1.568700E+00,+181.156E-03,-1.363E-03
-1.566000E+00,+35.427E-03,+2.707E-03
-1.563300E+00,+336.935E-03,-23.624E-03
-1.560600E+00,+759.045E-03,-60.861E-03
-1.557900E+00,-562.563E-03,-46.790E-03
-1.555200E+00,-1.487186E+00,+42.004E-03
-1.552500E+00,-180.653E-03,+11.501E-03
-1.549800E+00,-44.975E-03,+17.582E-03
-1.547100E+00,+603.266E-03,-23.675E-03
-1.544400E+00,-205.779E-03,+17.129E-03
-1.541700E+00,-19.849E-03,+12.959E-03
-1.539000E+00,+40.452E-03,+7.129E-03
-1.536300E+00,-4.774E-03,+3.260E-03
-1.533600E+00,+40.452E-03,+245E-06
-1.530900E+00,+140.955E-03,-16.036E-03
-1.528200E+00,-80.151E-03,-12.619E-03
-1.525500E+00,-281.156E-03,-2.167E-03
-1.522800E+00,-205.779E-03,+3.511E-03
-1.520100E+00,-200.754E-03,+2.858E-03
-1.517400E+00,+120.854E-03,-9.805E-03
-1.514700E+00,-105.276E-03,+697E-06
-1.512000E+00,-39.950E-03,-11.011E-03
-1.509300E+00,+15.327E-03,-5.584E-03
-1.506600E+00,-80.151E-03,-8.599E-03
-1.503900E+00,-441.960E-03,+4.064E-03
-1.501200E+00,-120.352E-03,+4.315E-03
-1.498500E+00,+95.729E-03,-8.348E-03
-1.495800E+00,+236.432E-03,-27.896E-03
-1.493100E+00,-462.060E-03,-1.363E-03
-1.490400E+00,-361.558E-03,+7.531E-03
-1.487700E+00,-80.151E-03,+3.059E-03
-1.485000E+00,-165.578E-03,+7.481E-03
-1.482300E+00,-85.176E-03,+4.717E-03
-1.479600E+00,+115.829E-03,+1.099E-03
-1.476900E+00,+60.553E-03,-2.368E-03
-1.474200E+00,-39.950E-03,-2.569E-03
-1.471500E+00,-200.754E-03,+5.069E-03
-1.468800E+00,+35.427E-03,+2.707E-03
-1.466100E+00,-65.075E-03,+1.451E-03
-1.463400E+00,+40.452E-03,-3.775E-03
-1.460700E+00,-105.276E-03,-3.775E-03
-1.458000E+00,-120.352E-03,-2.167E-03
-1.455300E+00,-4.774E-03,-710E-06
-1.452600E+00,+251E-06,-2.971E-03
-1.449900E+00,-60.050E-03,-6.137E-03
-1.447200E+00,+35.427E-03,-11.765E-03
-1.444500E+00,-19.849E-03,-13.775E-03
-1.441800E+00,-361.558E-03,+1.049E-03
-1.439100E+00,-200.754E-03,+1.049E-03
-1.436400E+00,-44.975E-03,-2.167E-03
-1.433700E+00,-100.251E-03,-2.519E-03
-1.431000E+00,-120.352E-03,+697E-06
-1.428300E+00,-60.050E-03,-6.991E-03
-1.425600E+00,-120.352E-03,-5.383E-03
-1.422900E+00,-261.055E-03,+3.260E-03
-1.420200E+00,-286.181E-03,+11.903E-03
-1.417500E+00,-65.075E-03,+8.536E-03
-1.414800E+00,+281.658E-03,-13.373E-03
-1.412100E+00,+140.955E-03,-27.644E-03
-1.409400E+00,-683.166E-03,+14.315E-03
-1.406700E+00,-85.176E-03,+11.552E-03
-1.404000E+00,+120.854E-03,-4.529E-03
-1.401300E+00,+135.930E-03,-6.589E-03
-1.398600E+00,-85.176E-03,-6.187E-03
-1.395900E+00,-105.276E-03,-7.343E-03
-1.393200E+00,-120.352E-03,-4.579E-03
-1.390500E+00,-261.055E-03,-559E-06
-1.387800E+00,-200.754E-03,+2.707E-03
-1.385100E+00,-80.151E-03,+848E-06
-1.382400E+00,+281.658E-03,-15.031E-03
-1.379700E+00,+95.729E-03,-14.780E-03
-1.377000E+00,-487.186E-03,-559E-06
-1.374300E+00,-426.884E-03,+19.190E-03
-1.371600E+00,-39.950E-03,-2.117E-03
-1.368900E+00,-180.653E-03,+3.461E-03
-1.366200E+00,-4.774E-03,+1.903E-03
-1.363500E+00,-24.874E-03,-2.720E-03
-1.360800E+00,-39.950E-03,+245E-06
-1.358100E+00,+15.327E-03,+1.652E-03
-1.355400E+00,-200.754E-03,+9.943E-03
-1.352700E+00,+201.256E-03,-12.418E-03
-1.350000E+00,+196.231E-03,-22.217E-03
-1.347300E+00,-582.663E-03,+647E-06
-1.344600E+00,-361.558E-03,+13.964E-03
-1.341900E+00,-85.176E-03,+898E-06
-1.339200E+00,+40.452E-03,-3.775E-03
-1.336500E+00,-180.653E-03,-2.519E-03
-1.333800E+00,-120.352E-03,-3.775E-03
-1.331100E+00,-120.352E-03,-3.323E-03
-1.328400E+00,-120.352E-03,-3.775E-03
-1.325700E+00,-19.849E-03,-2.368E-03
-1.323000E+00,-80.151E-03,-1.363E-03
-1.320300E+00,-120.352E-03,+1.903E-03
-1.317600E+00,-39.950E-03,+1.049E-03
-1.314900E+00,-85.176E-03,+2.104E-03
-1.312200E+00,-39.950E-03,+2.657E-03
-1.309500E+00,-120.352E-03,-157E-06
-1.306800E+00,-125.377E-03,+5.923E-03
-1.304100E+00,+15.327E-03,+8.285E-03
-1.301400E+00,-4.774E-03,+3.059E-03
-1.298700E+00,-65.075E-03,-3.524E-03
-1.296000E+00,+276.633E-03,-10.207E-03
-1.293300E+00,-4.774E-03,-12.016E-03
-1.290600E+00,-160.553E-03,-11.363E-03
-1.287900E+00,-140.452E-03,-10.207E-03
-1.285200E+00,-200.754E-03,-9.403E-03
-1.282500E+00,-200.754E-03,-7.142E-03
-1.279800E+00,-80.151E-03,-12.217E-03
-1.277100E+00,-185.678E-03,-157E-06
-1.274400E+00,-281.156E-03,+5.069E-03
-1.271700E+00,-24.874E-03,+496E-06
-1.269000E+00,+80.653E-03,-1.715E-03
-1.266300E+00,-39.950E-03,+1.049E-03
-1.263600E+00,-39.950E-03,+1.049E-03
-1.260900E+00,-39.950E-03,+1.049E-03
-1.258200E+00,-80.151E-03,-107E-06
-1.255500E+00,+181.156E-03,-12.770E-03
-1.252800E+00,+35.427E-03,-9.403E-03
-1.250100E+00,-120.352E-03,-5.182E-03
-1.247400E+00,-441.960E-03,+11.099E-03
-1.244700E+00,-185.678E-03,+13.562E-03
-1.242000E+00,-39.950E-03,+13.109E-03
-1.239300E+00,+120.854E-03,+1.853E-03
-1.236600E+00,+120.854E-03,-6.539E-03
-1.233900E+00,+251E-06,-6.187E-03
-1.231200E+00,-120.352E-03,-6.941E-03
-1.228500E+00,-39.950E-03,-6.790E-03
-1.225800E+00,-160.553E-03,-4.579E-03
-1.223100E+00,-120.352E-03,-2.569E-03
-1.220400E+00,-44.975E-03,-6.941E-03
-1.217700E+00,-180.653E-03,+2.054E-03
-1.215000E+00,-165.578E-03,+3.511E-03
-1.212300E+00,-39.950E-03,+2.506E-03
-1.209600E+00,-39.950E-03,+245E-06
-1.206900E+00,-100.251E-03,+1.853E-03
-1.204200E+00,-39.950E-03,-6.941E-03
-1.201500E+00,-105.276E-03,-7.142E-03
-1.198800E+00,-120.352E-03,-14.227E-03
-1.196100E+00,-165.578E-03,-2.770E-03
-1.193400E+00,-160.553E-03,-4.127E-03
-1.190700E+00,-165.578E-03,-1.916E-03
-1.188000E+00,-200.754E-03,-509E-06
-1.185300E+00,-65.075E-03,+2.104E-03
-1.182600E+00,+251E-06,-157E-06
-1.179900E+00,+20.352E-03,+94E-06
-1.177200E+00,+115.829E-03,-559E-06
-1.174500E+00,-200.754E-03,+3.662E-03
-1.171800E+00,+40.452E-03,-4.127E-03
-1.169100E+00,-200.754E-03,+6.074E-03
-1.166400E+00,-200.754E-03,+10.697E-03
-1.163700E+00,-180.653E-03,+15.320E-03
-1.161000E+00,+40.452E-03,+8.737E-03
-1.158300E+00,-381.658E-03,+37.230E-03
-1.155600E+00,+357.035E-03,+16.376E-03
-1.152900E+00,-426.884E-03,+50.094E-03
-1.150200E+00,+1.246482E+00,-52.368E-03
-1.147500E+00,-120.352E-03,-47.996E-03
-1.144800E+00,-366.583E-03,-28.649E-03
-1.142100E+00,-381.658E-03,-49.001E-03
-1.139400E+00,-1.733417E+00,+57.682E-03
-1.136700E+00,+35.427E-03,+23.612E-03
-1.134000E+00,+603.266E-03,-19.805E-03
-1.131300E+00,+281.658E-03,-28.700E-03
-1.128600E+00,+115.829E-03,-34.278E-03
-1.125900E+00,-4.774E-03,-45.584E-03
-1.123200E+00,-441.960E-03,-36.690E-03
-1.120500E+00,-467.085E-03,-23.474E-03
-1.117800E+00,-406.784E-03,-9.001E-03
-1.115100E+00,-346.482E-03,-8.599E-03
-1.112400E+00,-361.558E-03,+14.717E-03
-1.109700E+00,-65.075E-03,+14.366E-03
-1.107000E+00,+201.256E-03,+2.657E-03
-1.104300E+00,+336.935E-03,-10.157E-03
-1.101600E+00,-200.754E-03,-3.775E-03
-1.098900E+00,-487.186E-03,+25.823E-03
-1.096200E+00,+40.452E-03,+13.562E-03
-1.093500E+00,-140.452E-03,+21.954E-03
-1.090800E+00,+115.829E-03,+17.984E-03
-1.088100E+00,+100.754E-03,+15.320E-03
-1.085400E+00,+196.231E-03,+5.923E-03
-1.082700E+00,+181.156E-03,-4.579E-03
-1.080000E+00,+437.437E-03,-37.494E-03
-1.077300E+00,-60.050E-03,-43.976E-03
-1.074600E+00,-1.487186E+00,+52.858E-03
-1.071900E+00,-245.980E-03,+38.486E-03
-1.069200E+00,+759.045E-03,-4.529E-03
-1.066500E+00,-100.251E-03,+3.260E-03
-1.063800E+00,-120.352E-03,+9.943E-03
-1.061100E+00,+201.256E-03,-11.162E-03
-1.058400E+00,-120.352E-03,-10.207E-03
-1.055700E+00,-200.754E-03,-5.383E-03
-1.053000E+00,-39.950E-03,-13.423E-03
-1.050300E+00,-266.080E-03,-2.519E-03
-1.047600E+00,-120.352E-03,-7.795E-03
-1.044900E+00,-361.558E-03,+17.732E-03
-1.042200E+00,+80.653E-03,+295E-06
-1.039500E+00,+251E-06,-6.388E-03
-1.036800E+00,-39.950E-03,-4.579E-03
-1.034100E+00,-100.251E-03,-9.755E-03
-1.031400E+00,-160.553E-03,-8.599E-03
-1.028700E+00,-120.352E-03,-13.423E-03
-1.026000E+00,-200.754E-03,-5.383E-03
-1.023300E+00,-19.849E-03,-7.393E-03
-1.020600E+00,-245.980E-03,-3.775E-03
-1.017900E+00,-185.678E-03,+898E-06
-1.015200E+00,-125.377E-03,+245E-06
-1.012500E+00,-85.176E-03,+245E-06
-1.009800E+00,-165.578E-03,+5.471E-03
-1.007100E+00,-60.050E-03,+5.069E-03
-1.004400E+00,-39.950E-03,+2.707E-03
-1.001700E+00,+15.327E-03,+1.300E-03
-999.000E-03,-39.950E-03,-4.127E-03
-996.300E-03,+181.156E-03,-9.152E-03
-993.600E-03,-39.950E-03,-9.403E-03
-990.900E-03,-85.176E-03,-4.780E-03
-988.200E-03,-165.578E-03,-157E-06
-985.500E-03,-39.950E-03,-2.971E-03
-982.800E-03,+40.452E-03,-7.795E-03
-980.100E-03,-39.950E-03,-4.780E-03
-977.400E-03,-160.553E-03,+1.451E-03
-974.700E-03,-140.452E-03,-157E-06
-972.000E-03,-125.377E-03,+1.099E-03
-969.300E-03,+40.452E-03,-2.770E-03
-966.600E-03,-160.553E-03,-157E-06
-963.900E-03,+40.452E-03,-9.001E-03
-961.200E-03,-44.975E-03,-5.333E-03
-958.500E-03,-120.352E-03,-4.177E-03
-955.800E-03,-160.553E-03,-559E-06
-953.100E-03,-301.256E-03,+7.682E-03
-950.400E-03,-205.779E-03,+13.913E-03
-947.700E-03,-39.950E-03,+3.260E-03
-945.000E-03,+316.834E-03,-8.147E-03
-942.300E-03,+55.528E-03,-8.599E-03
-939.600E-03,-125.377E-03,-5.333E-03
-936.900E-03,-100.251E-03,-5.383E-03
-934.200E-03,-39.950E-03,-9.001E-03
-931.500E-03,-39.950E-03,-8.750E-03
-928.800E-03,-205.779E-03,+1.049E-03
-926.100E-03,-266.080E-03,+13.913E-03
-923.400E-03,-120.352E-03,+12.305E-03
-920.700E-03,+140.955E-03,+2.657E-03
-918.000E-03,+196.231E-03,-1.363E-03
-915.300E-03,-39.950E-03,-2.368E-03
-912.600E-03,+120.854E-03,-9.805E-03
-909.900E-03,-4.774E-03,-11.011E-03
-907.200E-03,+276.633E-03,-18.197E-03
-904.500E-03,-160.553E-03,-9.604E-03
-901.800E-03,-361.558E-03,+4.667E-03
-899.100E-03,-266.080E-03,+1.702E-03
-896.400E-03,-120.352E-03,+4.265E-03
-893.700E-03,-80.151E-03,+5.873E-03
-891.000E-03,+120.854E-03,-3.323E-03
-888.300E-03,+55.528E-03,-358E-06
-885.600E-03,-125.377E-03,-1.313E-03
-882.900E-03,-120.352E-03,-1.564E-03
-880.200E-03,+120.854E-03,-9.805E-03
-877.500E-03,-4.774E-03,-14.629E-03
-874.800E-03,-205.779E-03,-4.579E-03
-872.100E-03,-200.754E-03,+3.461E-03
-869.400E-03,-205.779E-03,+13.562E-03
-866.700E-03,-4.774E-03,+5.069E-03
-864.000E-03,-39.950E-03,+5.873E-03
-861.300E-03,+15.327E-03,+3.913E-03
-858.600E-03,+40.452E-03,-2.921E-03
-855.900E-03,-120.352E-03,-559E-06
-853.200E-03,+35.427E-03,-2.117E-03
-850.500E-03,-19.849E-03,-9.604E-03
-847.800E-03,-39.950E-03,-10.207E-03
-845.100E-03,-19.849E-03,-9.604E-03
-842.400E-03,-200.754E-03,-7.795E-03
-839.700E-03,-200.754E-03,-5.584E-03
-837.000E-03,-39.950E-03,-10.559E-03
-834.300E-03,-266.080E-03,-3.574E-03
-831.600E-03,-205.779E-03,-1.313E-03
-828.900E-03,-4.774E-03,-5.785E-03
-826.200E-03,-39.950E-03,-2.519E-03
-823.500E-03,-120.352E-03,+2.707E-03
-820.800E-03,-125.377E-03,+1.099E-03
-818.100E-03,-85.176E-03,+2.255E-03
-815.400E-03,-44.975E-03,+5.119E-03
-812.700E-03,-39.950E-03,+1.250E-03
-810.000E-03,-39.950E-03,+1.049E-03
-807.300E-03,-100.251E-03,+2.104E-03
-804.600E-03,-120.352E-03,+1.853E-03
-801.900E-03,-39.950E-03,+898E-06
-799.200E-03,-120.352E-03,+245E-06
-796.500E-03,-85.176E-03,+496E-06
-793.800E-03,-39.950E-03,-4.931E-03
-791.100E-03,-24.874E-03,-5.735E-03
-788.400E-03,+40.452E-03,-18.247E-03
-785.700E-03,-321.357E-03,-2.569E-03
-783.000E-03,-240.955E-03,+1.049E-03
-780.300E-03,-39.950E-03,-6.539E-03
-777.600E-03,+276.633E-03,-10.961E-03
-774.900E-03,-39.950E-03,-14.428E-03
-772.200E-03,-120.352E-03,-2.167E-03
-769.500E-03,-245.980E-03,+1.250E-03
-766.800E-03,-200.754E-03,+4.265E-03
-764.100E-03,+15.327E-03,+4.114E-03
-761.400E-03,-44.975E-03,-4.579E-03
-758.700E-03,-65.075E-03,-4.177E-03
-756.000E-03,-120.352E-03,-2.167E-03
-753.300E-03,-39.950E-03,-3.172E-03
-750.600E-03,-165.578E-03,+3.059E-03
-747.900E-03,-185.678E-03,-358E-06
-745.200E-03,-44.975E-03,-2.167E-03
-742.500E-03,-421.859E-03,+21.552E-03
-739.800E-03,-4.774E-03,+4.265E-03
-737.100E-03,+135.930E-03,-10.207E-03
-734.400E-03,-44.975E-03,-509E-06
-731.700E-03,+638.442E-03,-48.147E-03
-729.000E-03,-321.357E-03,-33.926E-03
-726.300E-03,-808.794E-03,+20.195E-03
-723.600E-03,-125.377E-03,-1.313E-03
-720.900E-03,-39.950E-03,-15.634E-03
-718.200E-03,-723.367E-03,+23.964E-03
-715.500E-03,-346.482E-03,+36.878E-03
-712.800E-03,+598.241E-03,-5.333E-03
-710.100E-03,+603.266E-03,-27.293E-03
-707.400E-03,-281.156E-03,+1.853E-03
-704.700E-03,-4.774E-03,-8.147E-03
-702.000E-03,-200.754E-03,-6.991E-03
-699.300E-03,-848.995E-03,+55.923E-03
-696.600E-03,+397.236E-03,+5.923E-03
-693.900E-03,+824.372E-03,-30.660E-03
-691.200E-03,+281.658E-03,-36.740E-03
-688.500E-03,-306.281E-03,-20.660E-03
-685.800E-03,-763.568E-03,+10.697E-03
-683.100E-03,-245.980E-03,+4.717E-03
-680.400E-03,+357.035E-03,-11.765E-03
-677.700E-03,-100.251E-03,-7.393E-03
-675.000E-03,-1.251005E+00,+76.979E-03
-672.300E-03,+457.538E-03,+32.858E-03
-669.600E-03,+1.080653E+00,-14.981E-03
-666.900E-03,+382.161E-03,-30.107E-03
-664.200E-03,-1.125377E+00,+42.004E-03
-661.500E-03,-85.176E-03,+29.441E-03
-658.800E-03,+442.462E-03,-10.961E-03
-656.100E-03,+442.462E-03,-30.660E-03
-653.400E-03,+161.055E-03,-41.966E-03
-650.700E-03,-120.352E-03,-40.559E-03
-648.000E-03,-441.960E-03,-29.504E-03
-645.300E-03,-441.960E-03,-14.026E-03
-642.600E-03,-361.558E-03,-6.539E-03
-639.900E-03,-200.754E-03,-5.383E-03
-637.200E-03,-200.754E-03,-4.579E-03
-634.500E-03,-180.653E-03,+3.662E-03
-631.800E-03,-120.352E-03,+9.089E-03
-629.100E-03,-4.774E-03,+9.290E-03
-626.400E-03,-39.950E-03,+9.089E-03
-623.700E-03,+15.327E-03,+8.938E-03
-621.000E-03,+251E-06,+8.687E-03
-618.300E-03,+100.754E-03,+2.305E-03
-615.600E-03,+276.633E-03,-5.333E-03
-612.900E-03,+20.352E-03,-13.976E-03
-610.200E-03,-80.151E-03,-8.197E-03
-607.500E-03,-180.653E-03,-3.373E-03
-604.800E-03,-125.377E-03,+245E-06
-602.100E-03,-65.075E-03,-1.916E-03
-599.400E-03,-85.176E-03,-3.725E-03
-596.700E-03,+20.352E-03,-11.413E-03
-594.000E-03,-44.975E-03,-11.011E-03
-591.300E-03,-39.950E-03,-14.026E-03
-588.600E-03,-361.558E-03,-961E-06
-585.900E-03,-301.256E-03,+5.471E-03
-583.200E-03,-120.352E-03,+9.089E-03
-580.500E-03,-120.352E-03,+14.567E-03
-577.800E-03,+75.628E-03,+8.737E-03
-575.100E-03,+55.528E-03,-1.715E-03
-572.400E-03,+201.256E-03,-15.785E-03
-569.700E-03,+120.854E-03,-22.268E-03
-567.000E-03,-39.950E-03,-16.237E-03
-564.300E-03,-140.452E-03,-11.413E-03
-561.600E-03,-200.754E-03,-8.599E-03
-558.900E-03,-165.578E-03,-2.720E-03
-556.200E-03,-85.176E-03,-1.363E-03
-553.500E-03,-105.276E-03,+446E-06
-550.800E-03,-44.975E-03,-3.725E-03
-548.100E-03,-60.050E-03,-3.524E-03
-545.400E-03,-39.950E-03,-4.127E-03
-542.700E-03,-39.950E-03,-4.177E-03
-540.000E-03,+35.427E-03,-559E-06
-537.300E-03,-180.653E-03,+3.662E-03
-534.600E-03,-200.754E-03,+5.471E-03
-531.900E-03,-120.352E-03,+8.687E-03
-529.200E-03,+35.427E-03,+6.727E-03
-526.500E-03,-19.849E-03,+2.657E-03
-523.800E-03,-4.774E-03,-2.117E-03
-521.100E-03,+251E-06,-1.715E-03
-518.400E-03,-44.975E-03,-2.921E-03
-515.700E-03,-24.874E-03,-3.323E-03
-513.000E-03,-120.352E-03,-1.715E-03
-510.300E-03,-120.352E-03,-1.514E-03
-507.600E-03,-125.377E-03,+2.657E-03
-504.900E-03,-145.477E-03,+4.717E-03
-502.200E-03,-44.975E-03,+1.501E-03
-499.500E-03,-85.176E-03,-1.514E-03
-496.800E-03,-120.352E-03,-3.775E-03
-494.100E-03,+120.854E-03,-5.735E-03
-491.400E-03,-160.553E-03,-1.715E-03
-488.700E-03,-85.176E-03,-2.167E-03
-486.000E-03,-200.754E-03,-559E-06
-483.300E-03,-120.352E-03,-2.368E-03
-480.600E-03,-39.950E-03,-3.373E-03
-477.900E-03,+251E-06,-4.378E-03
-475.200E-03,-39.950E-03,-4.579E-03
-472.500E-03,-100.251E-03,-3.373E-03
-469.800E-03,-120.352E-03,-4.981E-03
-467.100E-03,-105.276E-03,-5.132E-03
-464.400E-03,-200.754E-03,-6.137E-03
-461.700E-03,-200.754E-03,-4.579E-03
-459.000E-03,-44.975E-03,+3.913E-03
-456.300E-03,-160.553E-03,+4.868E-03
-453.600E-03,-120.352E-03,+5.873E-03
-450.900E-03,-39.950E-03,+4.516E-03
-448.200E-03,-39.950E-03,+4.717E-03
-445.500E-03,+60.553E-03,+1.702E-03
-442.800E-03,-39.950E-03,+245E-06
-440.100E-03,-120.352E-03,+3.260E-03
-437.400E-03,-120.352E-03,+2.707E-03
-434.700E-03,-24.874E-03,+446E-06
-432.000E-03,-44.975E-03,-5.333E-03
-429.300E-03,-65.075E-03,-4.328E-03
-426.600E-03,-39.950E-03,-4.579E-03
-423.900E-03,-80.151E-03,-4.378E-03
-421.200E-03,-120.352E-03,-2.971E-03
-418.500E-03,-180.653E-03,-760E-06
-415.800E-03,-39.950E-03,-1.715E-03
-413.100E-03,-441.960E-03,+14.717E-03
-410.400E-03,-441.960E-03,+29.994E-03
-407.700E-03,+683.668E-03,-18.197E-03
-405.000E-03,+402.261E-03,-35.484E-03
-402.300E-03,+100.754E-03,-42.167E-03
-399.600E-03,-361.558E-03,-30.308E-03
-396.900E-03,-602.764E-03,-12.820E-03
-394.200E-03,-567.588E-03,+7.883E-03
-391.500E-03,-441.960E-03,+18.335E-03
-388.800E-03,-200.754E-03,+21.954E-03
-386.100E-03,+236.432E-03,+17.984E-03
-383.400E-03,+603.266E-03,-16.991E-03
-380.700E-03,+120.854E-03,-22.469E-03
-378.000E-03,-441.960E-03,+2.657E-03
-375.300E-03,-381.658E-03,+12.305E-03
-372.600E-03,+35.427E-03,+1.501E-03
-369.900E-03,+683.668E-03,-36.288E-03
-367.200E-03,-361.558E-03,-11.815E-03
-364.500E-03,-607.789E-03,+21.954E-03
-361.800E-03,-205.779E-03,+19.190E-03
-359.100E-03,-441.960E-03,+33.411E-03
-356.400E-03,+276.633E-03,+30.044E-03
-353.700E-03,+884.673E-03,-24.680E-03
-351.000E-03,+482.663E-03,-37.896E-03
-348.300E-03,-587.688E-03,-7.594E-03
-345.600E-03,-446.985E-03,+3.511E-03
-342.900E-03,+40.452E-03,-16.388E-03
-340.200E-03,-39.950E-03,-9.805E-03
-337.500E-03,-421.859E-03,+11.501E-03
-334.800E-03,-39.950E-03,+1.099E-03
-332.100E-03,-200.754E-03,+7.280E-03
-329.400E-03,+40.452E-03,+3.109E-03
-326.700E-03,-39.950E-03,+245E-06
-324.000E-03,-120.352E-03,-2.971E-03
-321.300E-03,-19.849E-03,-4.177E-03
-318.600E-03,+40.452E-03,-8.951E-03
-315.900E-03,-406.784E-03,+94E-06
-313.200E-03,-200.754E-03,+2.657E-03
-310.500E-03,+20.352E-03,-8.599E-03
-307.800E-03,+251E-06,-8.197E-03
-305.100E-03,-185.678E-03,-6.338E-03
-302.400E-03,+281.658E-03,-31.062E-03
-299.700E-03,-502.261E-03,+4.265E-03
-297.000E-03,-446.985E-03,+19.139E-03
-294.300E-03,+181.156E-03,+4.516E-03
-291.600E-03,+40.452E-03,+2.657E-03
-288.900E-03,+120.854E-03,-5.132E-03
-286.200E-03,+120.854E-03,-12.619E-03
-283.500E-03,-140.452E-03,+446E-06
-280.800E-03,+196.231E-03,-10.157E-03
-278.100E-03,+40.452E-03,-22.016E-03
-275.400E-03,-39.950E-03,-28.700E-03
-272.700E-03,-843.970E-03,+15.722E-03
-270.000E-03,-205.779E-03,+22.004E-03
-267.300E-03,+120.854E-03,+7.732E-03
-264.600E-03,+35.427E-03,+7.933E-03
-261.900E-03,+281.658E-03,-9.202E-03
-259.200E-03,+281.658E-03,-21.413E-03
-256.500E-03,+251E-06,-14.830E-03
-253.800E-03,-567.588E-03,+8.285E-03
-251.100E-03,-225.879E-03,+5.320E-03
-248.400E-03,-120.352E-03,+1.099E-03
-245.700E-03,-100.251E-03,+647E-06
-243.000E-03,+40.452E-03,-559E-06
-240.300E-03,-140.452E-03,+446E-06
-237.600E-03,-120.352E-03,-4.579E-03
-234.900E-03,-261.055E-03,+12.758E-03
-232.200E-03,-200.754E-03,+12.707E-03
-229.500E-03,-220.854E-03,+19.541E-03
-226.800E-03,-39.950E-03,+21.954E-03
-224.100E-03,+236.432E-03,+9.541E-03
-221.400E-03,+241.457E-03,-157E-06
-218.700E-03,-421.859E-03,+28.185E-03
-216.000E-03,+276.633E-03,+5.923E-03
-213.300E-03,+658.543E-03,-34.881E-03
-210.600E-03,+522.864E-03,-59.655E-03
-207.900E-03,-743.467E-03,-19.856E-03
-205.200E-03,-763.568E-03,+3.511E-03
-202.500E-03,-200.754E-03,-7.343E-03
-199.800E-03,-80.151E-03,-10.609E-03
-197.100E-03,-120.352E-03,-13.574E-03
-194.400E-03,-120.352E-03,-14.227E-03
-191.700E-03,-65.075E-03,-11.413E-03
-189.000E-03,-200.754E-03,-6.991E-03
-186.300E-03,-185.678E-03,-4.931E-03
-183.600E-03,-39.950E-03,-8.599E-03
-180.900E-03,-65.075E-03,-8.599E-03
-178.200E-03,-120.352E-03,-5.383E-03
-175.500E-03,-140.452E-03,-2.770E-03
-172.800E-03,-44.975E-03,+1.099E-03
-170.100E-03,-160.553E-03,+5.873E-03
-167.400E-03,-80.151E-03,+9.139E-03
-164.700E-03,-105.276E-03,+9.089E-03
-162.000E-03,-120.352E-03,+12.356E-03
-159.300E-03,-39.950E-03,+13.712E-03
-156.600E-03,-39.950E-03,+18.386E-03
-153.900E-03,+75.628E-03,+11.351E-03
-151.200E-03,+115.829E-03,+2.707E-03
-148.500E-03,+221.357E-03,-13.775E-03
-145.800E-03,+241.457E-03,-37.544E-03
-143.100E-03,-381.658E-03,-9.403E-03
-140.400E-03,-44.975E-03,-14.981E-03
-137.700E-03,-602.764E-03,+22.758E-03
-135.000E-03,+35.427E-03,+6.325E-03
-132.300E-03,+382.161E-03,-19.403E-03
-129.600E-03,+196.231E-03,-23.072E-03
-126.900E-03,-200.754E-03,-11.815E-03
-124.200E-03,-281.156E-03,-6.589E-03
-121.500E-03,-286.181E-03,-3.775E-03
-118.800E-03,-125.377E-03,-1.363E-03
-116.100E-03,-180.653E-03,+1.300E-03
-113.400E-03,+251E-06,+1.903E-03
-110.700E-03,+40.452E-03,-2.368E-03
-108.000E-03,-120.352E-03,-509E-06
-105.300E-03,-160.553E-03,+2.657E-03
-102.600E-03,-240.955E-03,+15.521E-03
-99.900E-03,+100.754E-03,+8.737E-03
-97.200E-03,+281.658E-03,-10.961E-03
-94.500E-03,+120.854E-03,-12.619E-03
-91.800E-03,-200.754E-03,-3.323E-03
-89.100E-03,-185.678E-03,+2.305E-03
-86.400E-03,-125.377E-03,-1.313E-03
-83.700E-03,-39.950E-03,-3.172E-03
-81.000E-03,+40.452E-03,-8.197E-03
-78.300E-03,-105.276E-03,-18.649E-03
-75.600E-03,+40.452E-03,-21.464E-03
-72.900E-03,-301.256E-03,-14.830E-03
-70.200E-03,-200.754E-03,-9.353E-03
-67.500E-03,-220.854E-03,-5.785E-03
-64.800E-03,-125.377E-03,-559E-06
-62.100E-03,-180.653E-03,+7.682E-03
-59.400E-03,-120.352E-03,+11.501E-03
-56.700E-03,-24.874E-03,+9.491E-03
-54.000E-03,-120.352E-03,+13.109E-03
-51.300E-03,+120.854E-03,+5.672E-03
-48.600E-03,-281.156E-03,+17.531E-03
-45.900E-03,+201.256E-03,+13.160E-03
-43.200E-03,+683.668E-03,-36.690E-03
-40.500E-03,+60.553E-03,-41.765E-03
-37.800E-03,+40.452E-03,-47.946E-03
-35.100E-03,-1.567588E+00,+34.818E-03
-32.400E-03,-1.251005E+00,+90.295E-03
-29.700E-03,+1.181156E+00,-1.313E-03
-27.000E-03,+965.075E-03,-38.348E-03
-24.300E-03,-200.754E-03,-2.569E-03
-21.600E-03,-281.156E-03,+6.677E-03
-18.900E-03,-848.995E-03,+65.572E-03
-16.200E-03,+1.281658E+00,-35.082E-03
-13.500E-03,+965.075E-03,-60.861E-03
-10.800E-03,+201.256E-03,-60.861E-03
-8.100E-03,-1.768593E+00,-13.021E-03
-5.400E-03,-2.170603E+00,+99.943E-03
-2.700E-03,-4.774E-03,+66.778E-03
-0.0E+00,+1.723869E+00,-15.785E-03
+2.700E-03,+844.472E-03,-39.554E-03
+5.400E-03,-39.950E-03,-37.544E-03
+8.100E-03,-703.266E-03,-4.177E-03
+10.800E-03,-1.245980E+00,+50.898E-03
+13.500E-03,-19.849E-03,+29.592E-03
+16.200E-03,+1.000251E+00,-14.177E-03
+18.900E-03,+1.286683E+00,-60.861E-03
+21.600E-03,-1.165578E+00,-26.288E-03
+24.300E-03,-843.970E-03,-18.448E-03
+27.000E-03,-1.974623E+00,+98.335E-03
+29.700E-03,+698.744E-03,+11.954E-03
+32.400E-03,+201.256E-03,+25.220E-03
+35.100E-03,+844.472E-03,-18.398E-03
+37.800E-03,+558.040E-03,-28.247E-03
+40.500E-03,+703.769E-03,-60.861E-03
+43.200E-03,-1.894221E+00,+62.104E-03
+45.900E-03,-85.176E-03,+24.617E-03
+48.600E-03,+156.030E-03,+35.270E-03
+51.300E-03,+1.608291E+00,-60.861E-03
+54.000E-03,-361.558E-03,-14.227E-03
+56.700E-03,+522.864E-03,-56.589E-03
+59.400E-03,-562.563E-03,-24.680E-03
+62.100E-03,-622.864E-03,-4.177E-03
+64.800E-03,-602.764E-03,+9.943E-03
+67.500E-03,-225.879E-03,+13.310E-03
+70.200E-03,-39.950E-03,+5.119E-03
+72.900E-03,+201.256E-03,-1.363E-03
+75.600E-03,+40.452E-03,-2.971E-03
+78.300E-03,-4.774E-03,+848E-06
+81.000E-03,-85.176E-03,+1.853E-03
+83.700E-03,+55.528E-03,-4.579E-03
+86.400E-03,-200.754E-03,-2.117E-03
+89.100E-03,-80.151E-03,-4.378E-03
+91.800E-03,-401.759E-03,+18.737E-03
+94.500E-03,+296.734E-03,+697E-06
+97.200E-03,+517.839E-03,-33.474E-03
+99.900E-03,+140.955E-03,-28.700E-03
+102.600E-03,-642.965E-03,+1.049E-03
+105.300E-03,-808.794E-03,+44.667E-03
+108.000E-03,+517.839E-03,-5.333E-03
+110.700E-03,+462.563E-03,-18.197E-03
+113.400E-03,-281.156E-03,+1.853E-03
+116.100E-03,-587.688E-03,+28.386E-03
+118.800E-03,+40.452E-03,+5.923E-03
+121.500E-03,+281.658E-03,-13.976E-03
+124.200E-03,-160.553E-03,-9.001E-03
+126.900E-03,-281.156E-03,+3.260E-03
+129.600E-03,-44.975E-03,-3.725E-03
+132.300E-03,-39.950E-03,-11.413E-03
+135.000E-03,-85.176E-03,-11.815E-03
+137.700E-03,-426.884E-03,+11.702E-03
+140.400E-03,-125.377E-03,+13.964E-03
+143.100E-03,+497.739E-03,-19.604E-03
+145.800E-03,-240.955E-03,-6.187E-03
+148.500E-03,+296.734E-03,-17.192E-03
+151.200E-03,+522.864E-03,-60.861E-03
+153.900E-03,-1.813819E+00,+67.933E-03
+156.600E-03,+156.030E-03,+22.406E-03
+159.300E-03,+362.060E-03,+12.758E-03
+162.000E-03,+281.658E-03,+3.461E-03
+164.700E-03,+256.533E-03,-8.750E-03
+167.400E-03,+161.055E-03,-13.825E-03
+170.100E-03,-140.452E-03,-9.202E-03
+172.800E-03,-44.975E-03,-17.393E-03
+175.500E-03,-220.854E-03,-10.006E-03
+178.200E-03,-245.980E-03,+1.501E-03
+180.900E-03,-522.362E-03,+19.391E-03
+183.600E-03,-39.950E-03,+3.511E-03
+186.300E-03,+442.462E-03,-25.433E-03
+189.000E-03,+161.055E-03,-31.112E-03
+191.700E-03,-245.980E-03,-9.554E-03
+194.400E-03,-763.568E-03,+17.933E-03
+197.100E-03,+95.729E-03,-308E-06
+199.800E-03,-441.960E-03,+13.913E-03
+202.500E-03,+40.452E-03,+7.531E-03
+205.200E-03,-39.950E-03,+7.481E-03
+207.900E-03,-65.075E-03,+7.129E-03
+210.600E-03,+120.854E-03,-107E-06
+213.300E-03,+140.955E-03,-1.966E-03
+216.000E-03,-39.950E-03,-7.795E-03
+218.700E-03,-65.075E-03,-6.740E-03
+221.400E-03,-80.151E-03,-8.951E-03
+224.100E-03,-140.452E-03,-3.574E-03
+226.800E-03,-125.377E-03,-3.725E-03
+229.500E-03,-281.156E-03,+7.883E-03
+232.200E-03,-200.754E-03,+10.697E-03
+234.900E-03,+55.528E-03,+1.903E-03
+237.600E-03,+120.854E-03,-17.393E-03
+240.300E-03,+236.432E-03,-24.680E-03
+243.000E-03,-401.759E-03,-4.177E-03
+245.700E-03,-145.477E-03,-9.353E-03
+248.400E-03,-120.352E-03,-22.268E-03
+251.100E-03,+296.734E-03,-38.298E-03
+253.800E-03,-1.165578E+00,+22.758E-03
+256.500E-03,-165.578E-03,+19.793E-03
+259.200E-03,+281.658E-03,-17.443E-03
+261.900E-03,-487.186E-03,+31.049E-03
+264.600E-03,+236.432E-03,+5.521E-03
+267.300E-03,+176.131E-03,-3.323E-03
+270.000E-03,+196.231E-03,-14.177E-03
+272.700E-03,-200.754E-03,-2.368E-03
+275.400E-03,-240.955E-03,+1.501E-03
+278.100E-03,-441.960E-03,+20.747E-03
+280.800E-03,+35.427E-03,+10.747E-03
+283.500E-03,+482.663E-03,-22.268E-03
+286.200E-03,-647.990E-03,+27.984E-03
+288.900E-03,-286.181E-03,+19.190E-03
+291.600E-03,+196.231E-03,+7.531E-03
+294.300E-03,+100.754E-03,-5.986E-03
+297.000E-03,+477.638E-03,-29.454E-03
+299.700E-03,+80.653E-03,-42.770E-03
+302.400E-03,-281.156E-03,-26.237E-03
+305.100E-03,-245.980E-03,-26.036E-03
+307.800E-03,-281.156E-03,-22.268E-03
+310.500E-03,-522.362E-03,-3.976E-03
+313.200E-03,-446.985E-03,+13.109E-03
+315.900E-03,+60.553E-03,+1.049E-03
+318.600E-03,+40.452E-03,+1.049E-03
+321.300E-03,+95.729E-03,-5.132E-03
+324.000E-03,+196.231E-03,-15.031E-03
+326.700E-03,-683.166E-03,+29.592E-03
+329.400E-03,+40.452E-03,+7.129E-03
+332.100E-03,+377.136E-03,-17.594E-03
+334.800E-03,-200.754E-03,+245E-06
+337.500E-03,-326.382E-03,+18.737E-03
+340.200E-03,+120.854E-03,-1.715E-03
+342.900E-03,-60.050E-03,+1.853E-03
+345.600E-03,-281.156E-03,+5.069E-03
+348.300E-03,-39.950E-03,-911E-06
+351.000E-03,+75.628E-03,+2.305E-03
+353.700E-03,-39.950E-03,-1.162E-03
+356.400E-03,+35.427E-03,-4.529E-03
+359.100E-03,-321.357E-03,+4.064E-03
+361.800E-03,+35.427E-03,-5.735E-03
+364.500E-03,-346.482E-03,+9.893E-03
+367.200E-03,-200.754E-03,+9.893E-03
+369.900E-03,-19.849E-03,+496E-06
+372.600E-03,-39.950E-03,+2.305E-03
+375.300E-03,+20.352E-03,-8.398E-03
+378.000E-03,-125.377E-03,-2.117E-03
+380.700E-03,-100.251E-03,-8.147E-03
+383.400E-03,-80.151E-03,-6.187E-03
+386.100E-03,-220.854E-03,+5.069E-03
+388.800E-03,-366.583E-03,+21.954E-03
+391.500E-03,+251E-06,+6.325E-03
+394.200E-03,+321.859E-03,-12.569E-03
+396.900E-03,-441.960E-03,+7.079E-03
+399.600E-03,-125.377E-03,+2.707E-03
+402.300E-03,+216.332E-03,-11.564E-03
+405.000E-03,-200.754E-03,-9.001E-03
+407.700E-03,-185.678E-03,+1.702E-03
+410.400E-03,-125.377E-03,-7.795E-03
+413.100E-03,-145.477E-03,+245E-06
+415.800E-03,-200.754E-03,+5.923E-03
+418.500E-03,+135.930E-03,-13.423E-03
+421.200E-03,+201.256E-03,-27.845E-03
+423.900E-03,-225.879E-03,-16.036E-03
+426.600E-03,+482.663E-03,-41.916E-03
+429.300E-03,-1.190703E+00,+29.793E-03
+432.000E-03,-44.975E-03,-2.921E-03
+434.700E-03,-200.754E-03,+9.692E-03
+437.400E-03,-39.950E-03,+4.315E-03
+440.100E-03,+241.457E-03,-10.609E-03
+442.800E-03,-120.352E-03,-2.971E-03
+445.500E-03,-225.879E-03,+3.109E-03
+448.200E-03,-85.176E-03,+1.501E-03
+450.900E-03,+20.352E-03,-5.785E-03
+453.600E-03,-361.558E-03,+13.109E-03
+456.300E-03,+15.327E-03,+11.954E-03
+459.000E-03,+839.447E-03,-42.720E-03
+461.700E-03,-763.568E-03,+14.918E-03
+464.400E-03,-286.181E-03,+16.376E-03
+467.100E-03,+161.055E-03,-8.951E-03
+469.800E-03,-326.382E-03,+11.149E-03
+472.500E-03,+216.332E-03,-18.851E-03
+475.200E-03,+201.256E-03,-27.845E-03
+477.900E-03,-100.251E-03,-37.946E-03
+480.600E-03,-1.331407E+00,+56.124E-03
+483.300E-03,+321.859E-03,+12.959E-03
+486.000E-03,+362.060E-03,+1.853E-03
+488.700E-03,+161.055E-03,-2.167E-03
+491.400E-03,+35.427E-03,-3.323E-03
+494.100E-03,+80.653E-03,-3.926E-03
+496.800E-03,-200.754E-03,-2.971E-03
+499.500E-03,-120.352E-03,-2.971E-03
+502.200E-03,-39.950E-03,-4.579E-03
+504.900E-03,-39.950E-03,-7.594E-03
+507.600E-03,-120.352E-03,-4.579E-03
+510.300E-03,-65.075E-03,-2.971E-03
+513.000E-03,-44.975E-03,-1.363E-03
+515.700E-03,-85.176E-03,-1.363E-03
+518.400E-03,-39.950E-03,-9.353E-03
+521.100E-03,-120.352E-03,-6.187E-03
+523.800E-03,-120.352E-03,-2.167E-03
+526.500E-03,-120.352E-03,-1.363E-03
+529.200E-03,-120.352E-03,-1.313E-03
+531.900E-03,-120.352E-03,-2.971E-03
+534.600E-03,-80.151E-03,-4.127E-03
+537.300E-03,-105.276E-03,-5.534E-03
+540.000E-03,-120.352E-03,-4.529E-03
+542.700E-03,-120.352E-03,-1.765E-03
+545.400E-03,-160.553E-03,-1.313E-03
+548.100E-03,-105.276E-03,-2.318E-03
+550.800E-03,-120.352E-03,-2.167E-03
+553.500E-03,-120.352E-03,-4.328E-03
+556.200E-03,-80.151E-03,-559E-06
+558.900E-03,-60.050E-03,+1.250E-03
+561.600E-03,-125.377E-03,+2.707E-03
+564.300E-03,-85.176E-03,+3.863E-03
+567.000E-03,-39.950E-03,+295E-06
+569.700E-03,+251E-06,-3.926E-03
+572.400E-03,-39.950E-03,-6.137E-03
+575.100E-03,-120.352E-03,-9.755E-03
+577.800E-03,-160.553E-03,-3.775E-03
+580.500E-03,-105.276E-03,-1.162E-03
+583.200E-03,+40.452E-03,-4.579E-03
+585.900E-03,-19.849E-03,-4.127E-03
+588.600E-03,-85.176E-03,-3.323E-03
+591.300E-03,-165.578E-03,-2.167E-03
+594.000E-03,-120.352E-03,+245E-06
+596.700E-03,-160.553E-03,-1.564E-03
+599.400E-03,-39.950E-03,-8.147E-03
+602.100E-03,-24.874E-03,-8.348E-03
+604.800E-03,-120.352E-03,-6.991E-03
+607.500E-03,-281.156E-03,+4.265E-03
+610.200E-03,-326.382E-03,+18.335E-03
+612.900E-03,-60.050E-03,+13.109E-03
+615.600E-03,-39.950E-03,+14.717E-03
+618.300E-03,+15.327E-03,+6.124E-03
+621.000E-03,+75.628E-03,+295E-06
+623.700E-03,-24.874E-03,-5.936E-03
+626.400E-03,+40.452E-03,-12.569E-03
+629.100E-03,-261.055E-03,-5.584E-03
+631.800E-03,-200.754E-03,-1.715E-03
+634.500E-03,-165.578E-03,-7.795E-03
+637.200E-03,-120.352E-03,-7.795E-03
+639.900E-03,-225.879E-03,+496E-06
+642.600E-03,-165.578E-03,-107E-06
+645.300E-03,-85.176E-03,-6.790E-03
+648.000E-03,+35.427E-03,-8.549E-03
+650.700E-03,+40.452E-03,-12.619E-03
+653.400E-03,+251E-06,-13.775E-03
+656.100E-03,-165.578E-03,-15.031E-03
+658.800E-03,-125.377E-03,-9.403E-03
+661.500E-03,-261.055E-03,-358E-06
+664.200E-03,-200.754E-03,-2.519E-03
+666.900E-03,-85.176E-03,+1.501E-03
+669.600E-03,-200.754E-03,+1.853E-03
+672.300E-03,+75.628E-03,+1.652E-03
+675.000E-03,-85.176E-03,+5.069E-03
+677.700E-03,-39.950E-03,+7.732E-03
+680.400E-03,-200.754E-03,+12.305E-03
+683.100E-03,-100.251E-03,+13.913E-03
+685.800E-03,-4.774E-03,+9.541E-03
+688.500E-03,+522.864E-03,-16.991E-03
+691.200E-03,-120.352E-03,-14.227E-03
+693.900E-03,-627.889E-03,+23.562E-03
+696.600E-03,+35.427E-03,+5.923E-03
+699.300E-03,+296.734E-03,-21.011E-03
+702.000E-03,-522.362E-03,+9.893E-03
+704.700E-03,-487.186E-03,+35.220E-03
+707.400E-03,-80.151E-03,+33.662E-03
+710.100E-03,+537.940E-03,-13.373E-03
+712.800E-03,-200.754E-03,-13.423E-03
+715.500E-03,+442.462E-03,-40.710E-03
+718.200E-03,-602.764E-03,-8.599E-03
+720.900E-03,-406.784E-03,+8.335E-03
+723.600E-03,+357.035E-03,-23.021E-03
+726.300E-03,+161.055E-03,-46.589E-03
+729.000E-03,-1.527387E+00,+51.652E-03
+731.700E-03,-145.477E-03,+33.260E-03
+734.400E-03,+603.266E-03,-12.569E-03
+737.100E-03,+382.161E-03,-20.006E-03
+739.800E-03,-44.975E-03,-14.629E-03
+742.500E-03,+201.256E-03,-28.851E-03
+745.200E-03,+281.658E-03,-51.966E-03
+747.900E-03,-261.055E-03,-46.388E-03
+750.600E-03,-683.166E-03,-25.484E-03
+753.300E-03,-708.291E-03,-6.539E-03
+756.000E-03,-602.764E-03,+11.501E-03
+758.700E-03,-120.352E-03,+17.129E-03
+761.400E-03,+40.452E-03,+13.109E-03
+764.100E-03,+100.754E-03,+11.149E-03
+766.800E-03,+362.060E-03,-2.971E-03
+769.500E-03,-4.774E-03,+11.149E-03
+772.200E-03,+115.829E-03,+1.501E-03
+774.900E-03,-39.950E-03,+848E-06
+777.600E-03,-205.779E-03,+14.717E-03
+780.300E-03,-180.653E-03,+19.793E-03
+783.000E-03,-39.950E-03,+17.582E-03
+785.700E-03,+281.658E-03,+496E-06
+788.400E-03,-120.352E-03,+3.461E-03
+791.100E-03,-145.477E-03,+12.959E-03
+793.800E-03,-85.176E-03,+6.275E-03
+796.500E-03,-105.276E-03,+3.310E-03
+799.200E-03,+40.452E-03,+5.119E-03
+801.900E-03,+15.327E-03,+898E-06
+804.600E-03,-120.352E-03,-5.333E-03
+807.300E-03,-24.874E-03,-12.971E-03
+810.000E-03,-361.558E-03,-3.775E-03
+812.700E-03,-165.578E-03,-6.740E-03
+815.400E-03,-406.784E-03,+1.853E-03
+818.100E-03,-205.779E-03,-308E-06
+820.800E-03,-44.975E-03,-3.725E-03
+823.500E-03,-100.251E-03,-7.946E-03
+826.200E-03,-80.151E-03,-5.785E-03
+828.900E-03,-266.080E-03,-4.127E-03
+831.600E-03,-200.754E-03,-4.529E-03
+834.300E-03,-39.950E-03,-4.127E-03
+837.000E-03,-125.377E-03,-5.383E-03
+839.700E-03,-120.352E-03,-2.318E-03
+842.400E-03,-200.754E-03,-2.167E-03
+845.100E-03,-100.251E-03,+245E-06
+847.800E-03,-39.950E-03,-1.363E-03
+850.500E-03,+80.653E-03,-3.524E-03
+853.200E-03,+40.452E-03,-14.981E-03
+855.900E-03,+15.327E-03,-14.428E-03
+858.600E-03,-200.754E-03,-3.775E-03
+861.300E-03,-281.156E-03,+3.662E-03
+864.000E-03,-200.754E-03,+5.923E-03
+866.700E-03,-120.352E-03,+6.275E-03
+869.400E-03,+251E-06,+1.099E-03
+872.100E-03,+20.352E-03,-1.514E-03
+874.800E-03,+35.427E-03,-2.117E-03
+877.500E-03,+15.327E-03,-6.740E-03
+880.200E-03,-39.950E-03,-11.815E-03
+882.900E-03,-60.050E-03,-13.021E-03
+885.600E-03,-200.754E-03,-8.599E-03
+888.300E-03,-401.759E-03,-2.368E-03
+891.000E-03,-245.980E-03,+7.079E-03
+893.700E-03,-220.854E-03,+10.496E-03
+896.400E-03,+35.427E-03,+9.893E-03
+899.100E-03,+120.854E-03,+5.069E-03
+901.800E-03,-85.176E-03,+7.883E-03
+904.500E-03,-105.276E-03,+6.275E-03
+907.200E-03,-39.950E-03,+6.677E-03
+909.900E-03,+15.327E-03,+6.124E-03
+912.600E-03,-125.377E-03,+5.119E-03
+915.300E-03,-120.352E-03,+1.853E-03
+918.000E-03,-120.352E-03,-2.921E-03
+920.700E-03,+40.452E-03,-9.152E-03
+923.400E-03,-85.176E-03,-10.609E-03
+926.100E-03,-120.352E-03,-5.584E-03
+928.800E-03,-205.779E-03,-2.167E-03
+931.500E-03,-65.075E-03,-4.730E-03
+934.200E-03,+40.452E-03,-11.363E-03
+936.900E-03,+20.352E-03,-17.393E-03
+939.600E-03,-200.754E-03,-18.197E-03
+942.300E-03,-4.774E-03,-16.187E-03
+945.000E-03,-200.754E-03,-9.403E-03
+947.700E-03,-200.754E-03,-10.810E-03
+950.400E-03,-44.975E-03,-7.795E-03
+953.100E-03,+40.452E-03,-16.237E-03
+955.800E-03,-120.352E-03,-10.609E-03
+958.500E-03,-441.960E-03,+6.677E-03
+961.200E-03,-281.156E-03,+14.768E-03
+963.900E-03,-120.352E-03,+10.345E-03
+966.600E-03,+75.628E-03,+7.933E-03
+969.300E-03,-24.874E-03,+7.682E-03
+972.000E-03,-39.950E-03,+3.511E-03
+974.700E-03,+75.628E-03,+44E-06
+977.400E-03,+251E-06,-2.167E-03
+980.100E-03,-24.874E-03,-6.991E-03
+982.800E-03,-39.950E-03,-4.529E-03
+985.500E-03,-240.955E-03,-157E-06
+988.200E-03,-245.980E-03,+10.697E-03
+990.900E-03,-140.452E-03,+5.873E-03
+993.600E-03,+115.829E-03,+5.923E-03
+996.300E-03,-145.477E-03,+13.712E-03
+999.000E-03,+40.452E-03,+13.964E-03
+1.001700E+00,+241.457E-03,-2.720E-03
+1.004400E+00,+201.256E-03,-12.569E-03
+1.007100E+00,+40.452E-03,-12.820E-03
+1.009800E+00,-165.578E-03,-8.599E-03
+1.012500E+00,-160.553E-03,-6.941E-03
+1.015200E+00,-120.352E-03,-13.423E-03
+1.017900E+00,-145.477E-03,-9.755E-03
+1.020600E+00,-160.553E-03,-5.383E-03
+1.023300E+00,-200.754E-03,-1.363E-03
+1.026000E+00,-120.352E-03,+295E-06
+1.028700E+00,+60.553E-03,-6.740E-03
+1.031400E+00,+40.452E-03,-11.363E-03
+1.034100E+00,-39.950E-03,-10.408E-03
+1.036800E+00,-205.779E-03,+3.461E-03
+1.039500E+00,-39.950E-03,+2.305E-03
+1.042200E+00,+80.653E-03,-6.137E-03
+1.044900E+00,-220.854E-03,+4.667E-03
+1.047600E+00,-44.975E-03,+5.119E-03
+1.050300E+00,+40.452E-03,+2.456E-03
+1.053000E+00,+40.452E-03,+1.451E-03
+1.055700E+00,-60.050E-03,-760E-06
+1.058400E+00,-39.950E-03,+2.707E-03
+1.061100E+00,-39.950E-03,+4.265E-03
+1.063800E+00,+251E-06,-3.725E-03
+1.066500E+00,+20.352E-03,-6.187E-03
+1.069200E+00,+35.427E-03,-6.991E-03
+1.071900E+00,-145.477E-03,-1.765E-03
+1.074600E+00,-125.377E-03,-5.383E-03
+1.077300E+00,-80.151E-03,-1.514E-03
+1.080000E+00,-44.975E-03,-1.363E-03
+1.082700E+00,+40.452E-03,-4.328E-03
+1.085400E+00,+40.452E-03,-6.589E-03
+1.088100E+00,-39.950E-03,-7.393E-03
+1.090800E+00,-120.352E-03,-7.745E-03
+1.093500E+00,-140.452E-03,-7.544E-03
+1.096200E+00,-120.352E-03,-9.805E-03
+1.098900E+00,-140.452E-03,-4.177E-03
+1.101600E+00,-205.779E-03,+4.315E-03
+1.104300E+00,-160.553E-03,+1.702E-03
+1.107000E+00,-39.950E-03,+3.913E-03
+1.109700E+00,+20.352E-03,-559E-06
+1.112400E+00,-39.950E-03,+245E-06
+1.115100E+00,-100.251E-03,+2.657E-03
+1.117800E+00,+251E-06,-2.569E-03
+1.120500E+00,+251E-06,-9.202E-03
+1.123200E+00,-120.352E-03,-6.991E-03
+1.125900E+00,-200.754E-03,-358E-06
+1.128600E+00,-165.578E-03,-4.127E-03
+1.131300E+00,-105.276E-03,-5.936E-03
+1.134000E+00,-44.975E-03,-5.383E-03
+1.136700E+00,-120.352E-03,-7.192E-03
+1.139400E+00,-120.352E-03,-3.775E-03
+1.142100E+00,-60.050E-03,-2.569E-03
+1.144800E+00,-39.950E-03,-2.167E-03
+1.147500E+00,+15.327E-03,+496E-06
+1.150200E+00,-39.950E-03,-2.921E-03
+1.152900E+00,-105.276E-03,-2.519E-03
+1.155600E+00,-120.352E-03,-5.333E-03
+1.158300E+00,-100.251E-03,-6.539E-03
+1.161000E+00,-200.754E-03,-2.569E-03
+1.163700E+00,-185.678E-03,+697E-06
+1.166400E+00,-120.352E-03,+1.903E-03
+1.169100E+00,-120.352E-03,+295E-06
+1.171800E+00,-44.975E-03,+1.853E-03
+1.174500E+00,-120.352E-03,+3.310E-03
+1.177200E+00,-39.950E-03,+5.873E-03
+1.179900E+00,-100.251E-03,+4.064E-03
+1.182600E+00,+251E-06,+647E-06
+1.185300E+00,-39.950E-03,-1.765E-03
+1.188000E+00,-39.950E-03,-559E-06
+1.190700E+00,-65.075E-03,+2.657E-03
+1.193400E+00,-160.553E-03,+3.059E-03
+1.196100E+00,-120.352E-03,+3.662E-03
+1.198800E+00,-39.950E-03,+1.099E-03
+1.201500E+00,+176.131E-03,-14.378E-03
+1.204200E+00,-120.352E-03,-10.609E-03
+1.206900E+00,-301.256E-03,+4.868E-03
+1.209600E+00,-120.352E-03,+3.511E-03
+1.212300E+00,-19.849E-03,-6.589E-03
+1.215000E+00,-321.357E-03,+9.893E-03
+1.217700E+00,-4.774E-03,-509E-06
+1.220400E+00,+357.035E-03,-30.258E-03
+1.223100E+00,-261.055E-03,-12.619E-03
+1.225800E+00,+522.864E-03,-44.730E-03
+1.228500E+00,-944.472E-03,+4.868E-03
+1.231200E+00,-1.251005E+00,+70.195E-03
+1.233900E+00,+377.136E-03,+34.265E-03
+1.236600E+00,+643.467E-03,+3.511E-03
+1.239300E+00,+216.332E-03,+1.853E-03
+1.242000E+00,+598.241E-03,-26.237E-03
+1.244700E+00,-281.156E-03,-13.825E-03
+1.247400E+00,-406.784E-03,+7.933E-03
+1.250100E+00,+462.563E-03,-42.318E-03
+1.252800E+00,-281.156E-03,-21.464E-03
+1.255500E+00,-848.995E-03,+25.773E-03
+1.258200E+00,-406.784E-03,+22.356E-03
+1.260900E+00,-281.156E-03,+32.858E-03
+1.263600E+00,+357.035E-03,+5.923E-03
+1.266300E+00,+683.668E-03,-26.036E-03
+1.269000E+00,+402.261E-03,-40.760E-03
+1.271700E+00,-165.578E-03,-33.725E-03
+1.274400E+00,-361.558E-03,-23.825E-03
+1.277100E+00,-467.085E-03,-8.599E-03
+1.279800E+00,-406.784E-03,-2.117E-03
+1.282500E+00,-200.754E-03,+94E-06
+1.285200E+00,-120.352E-03,-2.971E-03
+1.287900E+00,+201.256E-03,-10.207E-03
+1.290600E+00,-80.151E-03,-4.981E-03
+1.293300E+00,-105.276E-03,-358E-06
+1.296000E+00,-205.779E-03,+5.873E-03
+1.298700E+00,-120.352E-03,+8.536E-03
+1.301400E+00,+251E-06,+7.481E-03
+1.304100E+00,+20.352E-03,+8.134E-03
+1.306800E+00,+196.231E-03,+295E-06
+1.309500E+00,+281.658E-03,-15.584E-03
+1.312200E+00,-80.151E-03,-13.021E-03
+1.314900E+00,-185.678E-03,-7.343E-03
+1.317600E+00,-281.156E-03,-11.011E-03
+1.320300E+00,-245.980E-03,+1.300E-03
+1.323000E+00,-245.980E-03,+13.511E-03
+1.325700E+00,-266.080E-03,+14.315E-03
+1.328400E+00,-39.950E-03,+13.160E-03
+1.331100E+00,+40.452E-03,+8.737E-03
+1.333800E+00,+40.452E-03,+4.717E-03
+1.336500E+00,+201.256E-03,-4.730E-03
+1.339200E+00,-39.950E-03,-4.579E-03
+1.341900E+00,-200.754E-03,+5.069E-03
+1.344600E+00,-39.950E-03,-3.373E-03
+1.347300E+00,-140.452E-03,-1.363E-03
+1.350000E+00,-44.975E-03,-5.383E-03
+1.352700E+00,-39.950E-03,-11.011E-03
+1.355400E+00,-200.754E-03,-6.991E-03
+1.358100E+00,-120.352E-03,-3.926E-03
+1.360800E+00,-200.754E-03,-3.725E-03
+1.363500E+00,-145.477E-03,-4.780E-03
+1.366200E+00,-80.151E-03,-8.147E-03
+1.368900E+00,-185.678E-03,-6.589E-03
+1.371600E+00,-44.975E-03,-6.941E-03
+1.374300E+00,-200.754E-03,-4.579E-03
+1.377000E+00,-80.151E-03,-2.921E-03
+1.379700E+00,-200.754E-03,+446E-06
+1.382400E+00,-125.377E-03,+1.099E-03
+1.385100E+00,-100.251E-03,+1.501E-03
+1.387800E+00,-120.352E-03,+3.913E-03
+1.390500E+00,+20.352E-03,+4.114E-03
+1.393200E+00,-44.975E-03,+4.265E-03
+1.395900E+00,-39.950E-03,+1.702E-03
+1.398600E+00,-120.352E-03,-3.725E-03
+1.401300E+00,-60.050E-03,-7.745E-03
+1.404000E+00,-120.352E-03,-10.961E-03
+1.406700E+00,-180.653E-03,-8.800E-03
+1.409400E+00,-160.553E-03,-3.775E-03
+1.412100E+00,-200.754E-03,-2.519E-03
+1.414800E+00,+35.427E-03,-2.971E-03
+1.417500E+00,-120.352E-03,-6.991E-03
+1.420200E+00,+40.452E-03,-2.519E-03
+1.422900E+00,+251E-06,-2.971E-03
+1.425600E+00,-39.950E-03,-2.117E-03
+1.428300E+00,-39.950E-03,-157E-06
+1.431000E+00,-39.950E-03,-1.765E-03
+1.433700E+00,-120.352E-03,+446E-06
+1.436400E+00,-39.950E-03,+245E-06
+1.439100E+00,-180.653E-03,+5.873E-03
+1.441800E+00,-80.151E-03,+5.873E-03
+1.444500E+00,+20.352E-03,-710E-06
+1.447200E+00,+40.452E-03,-559E-06
+1.449900E+00,-39.950E-03,+1.652E-03
+1.452600E+00,+35.427E-03,-5.785E-03
+1.455300E+00,-60.050E-03,-2.770E-03
+1.458000E+00,-281.156E-03,+5.873E-03
+1.460700E+00,-160.553E-03,+9.089E-03
+1.463400E+00,+40.452E-03,+5.521E-03
+1.466100E+00,+281.658E-03,+2.657E-03
+1.468800E+00,-39.950E-03,-509E-06
+1.471500E+00,-39.950E-03,+3.913E-03
+1.474200E+00,-39.950E-03,-1.715E-03
+1.476900E+00,+55.528E-03,-6.790E-03
+1.479600E+00,+115.829E-03,-11.011E-03
+1.482300E+00,+95.729E-03,-21.665E-03
+1.485000E+00,-120.352E-03,-26.237E-03
+1.487700E+00,-140.452E-03,-24.479E-03
+1.490400E+00,-205.779E-03,-20.660E-03
+1.493100E+00,-341.457E-03,-12.016E-03
+1.495800E+00,-321.357E-03,-3.373E-03
+1.498500E+00,-361.558E-03,+2.255E-03
+1.501200E+00,-361.558E-03,+10.697E-03
+1.503900E+00,+251E-06,+11.501E-03
+1.506600E+00,-39.950E-03,+12.707E-03
+1.509300E+00,-4.774E-03,+13.913E-03
+1.512000E+00,+115.829E-03,+13.160E-03
+1.514700E+00,+176.131E-03,+7.280E-03
+1.517400E+00,+35.427E-03,+6.325E-03
+1.520100E+00,+20.352E-03,+4.918E-03
+1.522800E+00,-120.352E-03,+4.265E-03
+1.525500E+00,-19.849E-03,+1.300E-03
+1.528200E+00,+251E-06,+697E-06
+1.530900E+00,-185.678E-03,+5.069E-03
+1.533600E+00,-441.960E-03,+23.562E-03
+1.536300E+00,+201.256E-03,+2.305E-03
+1.539000E+00,+120.854E-03,-4.127E-03
+1.541700E+00,+40.452E-03,-7.343E-03
+1.544400E+00,+120.854E-03,-23.876E-03
+1.547100E+00,-421.859E-03,-1.966E-03
+1.549800E+00,-200.754E-03,-2.971E-03
+1.552500E+00,-105.276E-03,-5.383E-03
+1.555200E+00,-39.950E-03,-6.137E-03
+1.557900E+00,-145.477E-03,-4.780E-03
+1.560600E+00,+251E-06,-3.775E-03
+1.563300E+00,-105.276E-03,-2.770E-03
+1.566000E+00,-44.975E-03,-3.725E-03
+1.568700E+00,+60.553E-03,-4.579E-03
+1.571400E+00,-120.352E-03,-4.981E-03
+1.574100E+00,-105.276E-03,-3.122E-03
+1.576800E+00,+35.427E-03,-3.725E-03
+1.579500E+00,-65.075E-03,-2.318E-03
+1.582200E+00,-80.151E-03,-2.167E-03
+1.584900E+00,-39.950E-03,-2.971E-03
+1.587600E+00,-120.352E-03,-5.333E-03
+1.590300E+00,-65.075E-03,-4.579E-03
+1.593000E+00,-120.352E-03,-2.971E-03
+1.595700E+00,-185.678E-03,-1.363E-03
+1.598400E+00,-125.377E-03,-1.363E-03
+1.601100E+00,-80.151E-03,-2.720E-03
+1.603800E+00,-39.950E-03,-4.529E-03
+1.606500E+00,+251E-06,-3.373E-03
+1.609200E+00,-120.352E-03,-2.167E-03
+1.611900E+00,-39.950E-03,-1.514E-03
+1.614600E+00,-125.377E-03,-1.363E-03
+1.617300E+00,-105.276E-03,-2.519E-03
+1.620000E+00,+35.427E-03,-2.971E-03
+1.622700E+00,-120.352E-03,-3.976E-03
+1.625400E+00,-4.774E-03,-2.569E-03
+1.628100E+00,-60.050E-03,-358E-06
+1.630800E+00,-120.352E-03,+245E-06
+1.633500E+00,-65.075E-03,-2.167E-03
+1.636200E+00,-4.774E-03,-3.323E-03
+1.638900E+00,-60.050E-03,-2.519E-03
+1.641600E+00,-120.352E-03,-1.363E-03
+1.644300E+00,-39.950E-03,-1.715E-03
+1.647000E+00,-39.950E-03,-559E-06
+1.649700E+00,+251E-06,-1.514E-03
+1.652400E+00,-200.754E-03,-3.725E-03
+1.655100E+00,-180.653E-03,-4.730E-03
+1.657800E+00,-165.578E-03,-2.519E-03
+1.660500E+00,-105.276E-03,-911E-06
+1.663200E+00,-39.950E-03,+245E-06
+1.665900E+00,-85.176E-03,-1.363E-03
+1.668600E+00,-120.352E-03,-2.167E-03
+1.671300E+00,-200.754E-03,-3.775E-03
+1.674000E+00,-200.754E-03,-2.167E-03
+1.676700E+00,-100.251E-03,-157E-06
+1.679400E+00,-165.578E-03,-2.167E-03
+1.682100E+00,-105.276E-03,-1.916E-03
+1.684800E+00,-120.352E-03,-2.971E-03
+1.687500E+00,-120.352E-03,-3.172E-03
+1.690200E+00,-125.377E-03,-3.373E-03
+1.692900E+00,-80.151E-03,-2.569E-03
+1.695600E+00,-39.950E-03,+245E-06
+1.698300E+00,-120.352E-03,-3.323E-03
+1.701000E+00,-125.377E-03,-1.715E-03
+1.703700E+00,-105.276E-03,-3.323E-03
+1.706400E+00,-44.975E-03,-3.775E-03
+1.709100E+00,-180.653E-03,-961E-06
+1.711800E+00,-85.176E-03,-559E-06
+1.714500E+00,-60.050E-03,-1.162E-03
+1.717200E+00,-120.352E-03,-3.725E-03
+1.719900E+00,-39.950E-03,-3.775E-03
+1.722600E+00,-39.950E-03,-2.921E-03
+1.725300E+00,-145.477E-03,-3.574E-03
+1.728000E+00,+35.427E-03,+245E-06
+1.730700E+00,+15.327E-03,-760E-06
+1.733400E+00,-4.774E-03,-2.569E-03
+1.736100E+00,+20.352E-03,-2.167E-03
+1.738800E+00,+40.452E-03,-3.725E-03
+1.741500E+00,+15.327E-03,-2.720E-03
+1.744200E+00,-160.553E-03,-1.363E-03
+1.746900E+00,-105.276E-03,+697E-06
+1.749600E+00,-120.352E-03,-1.313E-03
+1.752300E+00,-39.950E-03,-2.971E-03
+1.755000E+00,-39.950E-03,-3.775E-03
+1.757700E+00,-120.352E-03,-2.167E-03
+1.760400E+00,-200.754E-03,-509E-06
+1.763100E+00,-120.352E-03,-559E-06
+1.765800E+00,-120.352E-03,-2.117E-03
+1.768500E+00,-105.276E-03,-2.318E-03
+1.771200E+00,-120.352E-03,-3.775E-03
+1.773900E+00,+15.327E-03,-2.720E-03
+1.776600E+00,-165.578E-03,-559E-06
+1.779300E+00,-60.050E-03,-911E-06
+1.782000E+00,-39.950E-03,-1.363E-03
+1.784700E+00,-105.276E-03,-1.162E-03
+1.787400E+00,-120.352E-03,-3.725E-03
+1.790100E+00,+251E-06,-2.720E-03
+1.792800E+00,-120.352E-03,-2.167E-03
+1.795500E+00,-180.653E-03,-308E-06
+1.798200E+00,-85.176E-03,-961E-06
+1.800900E+00,-39.950E-03,-2.167E-03
+1.803600E+00,+35.427E-03,-2.167E-03
+1.806300E+00,-39.950E-03,-2.569E-03
+1.809000E+00,+251E-06,-2.569E-03
+1.811700E+00,-60.050E-03,+94E-06
+1.814400E+00,-44.975E-03,-2.921E-03
+1.817100E+00,-65.075E-03,-1.916E-03
+1.819800E+00,-39.950E-03,-4.529E-03
+1.822500E+00,+20.352E-03,-3.574E-03
+1.825200E+00,-200.754E-03,-2.921E-03
+1.827900E+00,-65.075E-03,-1.363E-03
+1.830600E+00,-80.151E-03,-559E-06
+1.833300E+00,-120.352E-03,-2.971E-03
+1.836000E+00,-120.352E-03,-3.775E-03
+1.838700E+00,-39.950E-03,-4.177E-03
+1.841400E+00,-125.377E-03,-2.569E-03
+1.844100E+00,-105.276E-03,-559E-06
+1.846800E+00,-44.975E-03,-559E-06
+1.849500E+00,-65.075E-03,-559E-06
+1.852200E+00,-39.950E-03,-2.519E-03
+1.854900E+00,-60.050E-03,-2.971E-03
+1.857600E+00,-120.352E-03,-2.921E-03
+1.860300E+00,-39.950E-03,-358E-06
+1.863000E+00,-39.950E-03,-107E-06
+1.865700E+00,+100.754E-03,-1.514E-03
+1.868400E+00,+35.427E-03,-2.921E-03
+1.871100E+00,-19.849E-03,-2.720E-03
+1.873800E+00,-44.975E-03,-2.971E-03
+1.876500E+00,-185.678E-03,-1.363E-03
+1.879200E+00,-200.754E-03,+245E-06
+1.881900E+00,-100.251E-03,-760E-06
+1.884600E+00,-80.151E-03,-2.167E-03
+1.887300E+00,+251E-06,-2.770E-03
+1.890000E+00,-200.754E-03,-2.167E-03
+1.892700E+00,-85.176E-03,-1.765E-03
+1.895400E+00,-80.151E-03,-911E-06
+1.898100E+00,-80.151E-03,-1.363E-03
+1.900800E+00,-281.156E-03,-2.921E-03
+1.903500E+00,-65.075E-03,-3.373E-03
+1.906200E+00,-4.774E-03,-2.971E-03
+1.908900E+00,-140.452E-03,-3.373E-03
+1.911600E+00,+35.427E-03,-1.313E-03
+1.914300E+00,-65.075E-03,-760E-06
+1.917000E+00,-80.151E-03,-2.167E-03
+1.919700E+00,-39.950E-03,-3.775E-03
+1.922400E+00,-44.975E-03,-6.137E-03
+1.925100E+00,-85.176E-03,-1.564E-03
+1.927800E+00,-120.352E-03,+245E-06
+1.930500E+00,-39.950E-03,-1.363E-03
+1.933200E+00,-44.975E-03,-2.117E-03
+1.935900E+00,-120.352E-03,-3.323E-03
+1.938600E+00,-80.151E-03,-3.775E-03
+1.941300E+00,-120.352E-03,-1.966E-03
+1.944000E+00,-125.377E-03,+245E-06
+1.946700E+00,-100.251E-03,-559E-06
+1.949400E+00,-80.151E-03,-911E-06
+1.952100E+00,+15.327E-03,-2.971E-03
+1.954800E+00,-200.754E-03,-2.921E-03
+1.957500E+00,-4.774E-03,-3.373E-03
+1.960200E+00,-85.176E-03,-961E-06
+1.962900E+00,-120.352E-03,-1.564E-03
+1.965600E+00,-120.352E-03,-1.363E-03
+1.968300E+00,-100.251E-03,-3.524E-03
+1.971000E+00,-4.774E-03,-3.323E-03
+1.973700E+00,-105.276E-03,-2.167E-03
+1.976400E+00,-39.950E-03,-559E-06
+1.979100E+00,-65.075E-03,-760E-06
+1.981800E+00,-85.176E-03,-911E-06
+1.984500E+00,-60.050E-03,-2.167E-03
+1.987200E+00,+35.427E-03,-3.775E-03
+1.989900E+00,-24.874E-03,-4.328E-03
+1.992600E+00,-120.352E-03,-2.167E-03
+1.995300E+00,-80.151E-03,-107E-06
+1.998000E+00,-120.352E-03,-1.313E-03
+2.000700E+00,-165.578E-03,-2.971E-03
+2.003400E+00,-39.950E-03,-3.373E-03
+2.006100E+00,-85.176E-03,-2.971E-03
+2.008800E+00,-200.754E-03,-2.167E-03
+2.011500E+00,-160.553E-03,-157E-06
+2.014200E+00,-160.553E-03,-911E-06
+2.016900E+00,-120.352E-03,-2.167E-03
+2.019600E+00,+115.829E-03,-1.363E-03
+2.022300E+00,-145.477E-03,-4.579E-03
+2.025000E+00,-39.950E-03,-2.569E-03
+2.027700E+00,+80.653E-03,-559E-06
+2.030400E+00,-44.975E-03,-559E-06
+2.033100E+00,-4.774E-03,-2.167E-03
+2.035800E+00,-39.950E-03,-2.921E-03
+2.038500E+00,-105.276E-03,-3.976E-03
+2.041200E+00,-44.975E-03,-2.167E-03
+2.043900E+00,-39.950E-03,-1.564E-03
+2.046600E+00,-165.578E-03,-1.363E-03
+2.049300E+00,-80.151E-03,-1.715E-03
+2.052000E+00,+35.427E-03,-3.775E-03
+2.054700E+00,-65.075E-03,-2.368E-03
+2.057400E+00,-125.377E-03,-2.117E-03
+2.060100E+00,-200.754E-03,-1.966E-03
+2.062800E+00,+35.427E-03,-559E-06
+2.065500E+00,-160.553E-03,-2.318E-03
+2.068200E+00,-80.151E-03,-2.167E-03
+2.070900E+00,-140.452E-03,-2.971E-03
+2.073600E+00,-39.950E-03,-2.971E-03
+2.076300E+00,-160.553E-03,-2.167E-03
+2.079000E+00,-80.151E-03,-911E-06
+2.081700E+00,-65.075E-03,-2.167E-03
+2.084400E+00,-120.352E-03,-2.167E-03
+2.087100E+00,-39.950E-03,-4.328E-03
+2.089800E+00,-120.352E-03,-2.971E-03
+2.092500E+00,+20.352E-03,-2.770E-03
+2.095200E+00,+35.427E-03,-559E-06
+2.097900E+00,-180.653E-03,-1.112E-03
+2.100600E+00,-39.950E-03,-1.765E-03
+2.103300E+00,-39.950E-03,-1.966E-03
+2.106000E+00,-125.377E-03,-2.921E-03
+2.108700E+00,+15.327E-03,-2.167E-03
+2.111400E+00,-120.352E-03,-559E-06
+2.114100E+00,-105.276E-03,+94E-06
+2.116800E+00,-120.352E-03,-3.725E-03
+2.119500E+00,-100.251E-03,-4.127E-03
+2.122200E+00,-39.950E-03,-2.167E-03
+2.124900E+00,-60.050E-03,-2.318E-03
+2.127600E+00,-200.754E-03,-559E-06
+2.130300E+00,-145.477E-03,-308E-06
+2.133000E+00,-39.950E-03,-911E-06
+2.135700E+00,-39.950E-03,-2.569E-03
+2.138400E+00,-200.754E-03,-2.167E-03
+2.141100E+00,-120.352E-03,-2.720E-03
+2.143800E+00,-165.578E-03,-961E-06
+2.146500E+00,-39.950E-03,-358E-06
+2.149200E+00,-44.975E-03,-1.313E-03
+2.151900E+00,-60.050E-03,-1.765E-03
+2.154600E+00,-4.774E-03,-3.323E-03
+2.157300E+00,-24.874E-03,-2.971E-03
+2.160000E+00,-200.754E-03,-2.167E-03
+2.162700E+00,-105.276E-03,-559E-06
+2.165400E+00,+251E-06,-1.765E-03
+2.168100E+00,-39.950E-03,-2.167E-03
+2.170800E+00,+40.452E-03,-2.971E-03
+2.173500E+00,-120.352E-03,-3.524E-03
+2.176200E+00,-120.352E-03,-1.363E-03
+2.178900E+00,-185.678E-03,-107E-06
+2.181600E+00,-120.352E-03,-1.313E-03
+2.184300E+00,-24.874E-03,-2.971E-03
+2.187000E+00,-39.950E-03,-3.323E-03
+2.189700E+00,-105.276E-03,-2.318E-03
+2.192400E+00,-200.754E-03,-1.363E-03
+2.195100E+00,-85.176E-03,-1.363E-03
+2.197800E+00,-85.176E-03,-107E-06
+2.200500E+00,-120.352E-03,-1.715E-03
+2.203200E+00,-44.975E-03,-2.167E-03
+2.205900E+00,-160.553E-03,-4.730E-03
+2.208600E+00,-120.352E-03,-2.971E-03
+2.211300E+00,-185.678E-03,+94E-06
+2.214000E+00,-281.156E-03,-509E-06
+2.216700E+00,-19.849E-03,-1.564E-03
+2.219400E+00,-165.578E-03,-2.569E-03
+2.222100E+00,-105.276E-03,-5.584E-03
+2.224800E+00,-120.352E-03,-2.167E-03
+2.227500E+00,-120.352E-03,+44E-06
+2.230200E+00,-160.553E-03,-559E-06
+2.232900E+00,-65.075E-03,-1.514E-03
+2.235600E+00,-44.975E-03,-2.921E-03
+2.238300E+00,-19.849E-03,-3.373E-03
+2.241000E+00,-200.754E-03,-2.921E-03
+2.243700E+00,-185.678E-03,-911E-06
+2.246400E+00,-44.975E-03,-1.313E-03
+2.249100E+00,-65.075E-03,-961E-06
+2.251800E+00,-1.572613E+00,+93.059E-03
+2.254500E+00,+859.548E-03,+20.195E-03
+2.257200E+00,+2.211307E+00,-60.861E-03
+2.259900E+00,-1.467085E+00,-961E-06
+2.262600E+00,-1.854020E+00,+99.139E-03
+2.265300E+00,+1.623367E+00,-31.665E-03
+2.268000E+00,+1.487688E+00,-60.861E-03
+2.270700E+00,-2.125377E+00,+44.416E-03
+2.273400E+00,-1.009799E+00,+81.451E-03
+2.276100E+00,+1.965075E+00,-60.861E-03
+2.278800E+00,+281.658E-03,-60.861E-03
+2.281500E+00,-909.296E-03,-559E-06
+2.284200E+00,-441.960E-03,-509E-06
+2.286900E+00,-200.754E-03,-2.569E-03
+2.289600E+00,-120.352E-03,-2.117E-03
+2.292300E+00,-100.251E-03,+44E-06
+2.295000E+00,-39.950E-03,-107E-06
+2.297700E+00,-19.849E-03,+446E-06
+2.300400E+00,-44.975E-03,+245E-06
+2.303100E+00,+75.628E-03,-1.966E-03
+2.305800E+00,-80.151E-03,-1.313E-03
+2.308500E+00,-39.950E-03,-358E-06
+2.311200E+00,-120.352E-03,-559E-06
+2.313900E+00,-200.754E-03,+1.049E-03
+2.316600E+00,-80.151E-03,-961E-06
+2.319300E+00,-120.352E-03,-2.167E-03
+2.322000E+00,-39.950E-03,-2.971E-03
+2.324700E+00,-100.251E-03,-961E-06
+2.327400E+00,-39.950E-03,-559E-06
+2.330100E+00,-60.050E-03,+697E-06
+2.332800E+00,-39.950E-03,-1.363E-03
+2.335500E+00,-60.050E-03,-2.167E-03
+2.338200E+00,-80.151E-03,-2.921E-03
+2.340900E+00,-105.276E-03,-3.574E-03
+2.343600E+00,-120.352E-03,-3.725E-03
+2.346300E+00,-44.975E-03,-911E-06
+2.349000E+00,-85.176E-03,-911E-06
+2.351700E+00,-39.950E-03,-3.122E-03
+2.354400E+00,-120.352E-03,-2.167E-03
+2.357100E+00,-80.151E-03,-1.564E-03
+2.359800E+00,-165.578E-03,-961E-06
+2.362500E+00,-140.452E-03,+94E-06
+2.365200E+00,-120.352E-03,-2.921E-03
+2.367900E+00,-60.050E-03,-1.162E-03
+2.370600E+00,-39.950E-03,-2.971E-03
+2.373300E+00,+40.452E-03,-2.318E-03
+2.376000E+00,-200.754E-03,+245E-06
+2.378700E+00,-65.075E-03,-559E-06
+2.381400E+00,-125.377E-03,-157E-06
+2.384100E+00,-60.050E-03,-2.770E-03
+2.386800E+00,-39.950E-03,-2.167E-03
+2.389500E+00,-120.352E-03,-4.328E-03
+2.392200E+00,-85.176E-03,-961E-06
+2.394900E+00,-120.352E-03,+446E-06
+2.397600E+00,-44.975E-03,+245E-06
+2.400300E+00,-19.849E-03,-2.167E-03
+2.403000E+00,-80.151E-03,-2.921E-03
+2.405700E+00,-120.352E-03,-4.579E-03
+2.408400E+00,-39.950E-03,-4.529E-03
+2.411100E+00,-160.553E-03,-1.112E-03
+2.413800E+00,+75.628E-03,-911E-06
+2.416500E+00,+251E-06,-1.363E-03
+2.419200E+00,-44.975E-03,-2.167E-03
+2.421900E+00,-145.477E-03,-3.172E-03
+2.424600E+00,-200.754E-03,-2.167E-03
+2.427300E+00,-185.678E-03,+94E-06
+2.430000E+00,-44.975E-03,-509E-06
+2.432700E+00,-39.950E-03,-3.323E-03
+2.435400E+00,-4.774E-03,-3.775E-03
+2.438100E+00,-39.950E-03,-4.579E-03
+2.440800E+00,-120.352E-03,-3.725E-03
+2.443500E+00,-65.075E-03,-358E-06
+2.446200E+00,-120.352E-03,-157E-06
+2.448900E+00,-225.879E-03,-1.564E-03
+2.451600E+00,-39.950E-03,-2.167E-03
+2.454300E+00,-65.075E-03,-3.323E-03
+2.457000E+00,-85.176E-03,-2.971E-03
+2.459700E+00,-140.452E-03,-2.569E-03
+2.462400E+00,-44.975E-03,-509E-06
+2.465100E+00,-100.251E-03,-308E-06
+2.467800E+00,-4.774E-03,-2.971E-03
+2.470500E+00,+251E-06,-3.775E-03
+2.473200E+00,-120.352E-03,-2.167E-03
+2.475900E+00,-145.477E-03,-157E-06
+2.478600E+00,-165.578E-03,-911E-06
+2.481300E+00,-105.276E-03,-107E-06
+2.484000E+00,-120.352E-03,-2.167E-03
+2.486700E+00,-65.075E-03,-3.524E-03
+2.489400E+00,-44.975E-03,-4.177E-03
+2.492100E+00,+20.352E-03,-1.363E-03
+2.494800E+00,-120.352E-03,-559E-06
+2.497500E+00,-80.151E-03,+245E-06
+2.500200E+00,-85.176E-03,-1.313E-03
+2.502900E+00,-185.678E-03,-2.519E-03
+2.505600E+00,-44.975E-03,-4.529E-03
+2.508300E+00,-39.950E-03,-2.720E-03
+2.511000E+00,-85.176E-03,+245E-06
+2.513700E+00,-200.754E-03,-961E-06
+2.516400E+00,-39.950E-03,-559E-06
+2.519100E+00,-160.553E-03,-2.971E-03
+2.521800E+00,-39.950E-03,-5.333E-03
+2.524500E+00,-120.352E-03,-2.569E-03
+2.527200E+00,+35.427E-03,-559E-06
+2.529900E+00,-220.854E-03,-308E-06
+2.532600E+00,-80.151E-03,-911E-06
+2.535300E+00,-120.352E-03,-3.323E-03
+2.538000E+00,-44.975E-03,-3.775E-03
+2.540700E+00,-180.653E-03,-1.765E-03
+2.543400E+00,-80.151E-03,-107E-06
+2.546100E+00,-120.352E-03,-559E-06
+2.548800E+00,+357.035E-03,+245E-06
+2.551500E+00,-120.352E-03,-2.167E-03
+2.554200E+00,-39.950E-03,-2.569E-03
+2.556900E+00,-60.050E-03,-2.519E-03
+2.559600E+00,-125.377E-03,-2.117E-03
+2.562300E+00,-39.950E-03,-559E-06
+2.565000E+00,-125.377E-03,-1.765E-03
+2.567700E+00,-60.050E-03,-1.966E-03
+2.570400E+00,+115.829E-03,-4.529E-03
+2.573100E+00,-100.251E-03,-3.775E-03
+2.575800E+00,-120.352E-03,-1.313E-03
+2.578500E+00,-200.754E-03,+446E-06
+2.581200E+00,-120.352E-03,+1.049E-03
+2.583900E+00,-80.151E-03,-2.368E-03
+2.586600E+00,-85.176E-03,-4.177E-03
+2.589300E+00,-120.352E-03,-4.981E-03
+2.592000E+00,-39.950E-03,-1.363E-03
+2.594700E+00,-225.879E-03,-308E-06
+2.597400E+00,-120.352E-03,-107E-06
+2.600100E+00,+251E-06,-1.112E-03
+2.602800E+00,-39.950E-03,-2.971E-03
+2.605500E+00,-80.151E-03,-3.976E-03
+2.608200E+00,-120.352E-03,-1.765E-03
+2.610900E+00,-120.352E-03,-308E-06
+2.613600E+00,-44.975E-03,-559E-06
+2.616300E+00,-100.251E-03,-3.373E-03
+2.619000E+00,+251E-06,-2.569E-03
+2.621700E+00,+20.352E-03,-2.971E-03
+2.624400E+00,-120.352E-03,-2.117E-03
+2.627100E+00,-145.477E-03,+446E-06
+2.629800E+00,-125.377E-03,+647E-06
+2.632500E+00,-4.774E-03,-710E-06
+2.635200E+00,-200.754E-03,-2.971E-03
+2.637900E+00,-120.352E-03,-3.122E-03
+2.640600E+00,-165.578E-03,-2.519E-03
+2.643300E+00,-140.452E-03,-157E-06
+2.646000E+00,-200.754E-03,-559E-06
+2.648700E+00,-100.251E-03,-1.715E-03
+2.651400E+00,-80.151E-03,-1.715E-03
+2.654100E+00,-39.950E-03,-4.378E-03
+2.656800E+00,-200.754E-03,-3.725E-03
+2.659500E+00,-85.176E-03,-1.112E-03
+2.662200E+00,-165.578E-03,-961E-06
+2.664900E+00,-39.950E-03,-1.514E-03
+2.667600E+00,-125.377E-03,-2.167E-03
+2.670300E+00,-19.849E-03,-3.122E-03
+2.673000E+00,-39.950E-03,-2.519E-03
+2.675700E+00,-39.950E-03,-3.122E-03
+2.678400E+00,-125.377E-03,-509E-06
+2.681100E+00,-225.879E-03,-157E-06
+2.683800E+00,-4.774E-03,-1.363E-03
+2.686500E+00,-65.075E-03,-2.971E-03
+2.689200E+00,+35.427E-03,-2.971E-03
+2.691900E+00,-165.578E-03,-2.167E-03
+2.694600E+00,-85.176E-03,-1.363E-03
+2.697300E+00,-120.352E-03,-1.162E-03
