x-axis,1,2
second,Volt,Volt
-4.980000E+00,-578.452E-03,+1.310647E+00
-4.975000E+00,-2.314633E+00,+1.840798E+00
-4.970000E+00,+268.281E-03,+1.566929E+00
-4.965000E+00,+127.578E-03,+1.506627E+00
-4.960000E+00,-510.613E-03,+1.533009E+00
-4.955000E+00,+285.869E-03,+1.472707E+00
-4.950000E+00,-543.276E-03,+1.712657E+00
-4.945000E+00,+1.620040E+00,+1.002858E+00
-4.940000E+00,-651.317E-03,+1.737783E+00
-4.935000E+00,-28.201E-03,+1.617180E+00
-4.930000E+00,+253.206E-03,+1.255371E+00
-4.925000E+00,-3.045789E+00,+1.906124E+00
-4.920000E+00,+929.085E-03,+1.637280E+00
-4.915000E+00,+263.256E-03,+1.525471E+00
-4.910000E+00,-153.829E-03,+1.471451E+00
-4.905000E+00,+165.266E-03,+1.481501E+00
-4.900000E+00,-23.176E-03,+1.455119E+00
-4.895000E+00,-550.814E-03,+1.472707E+00
-4.890000E+00,+12.000E-03,+1.492808E+00
-4.885000E+00,+396.422E-03,+1.424969E+00
-4.880000E+00,-503.075E-03,+1.492808E+00
-4.875000E+00,-131.216E-03,+1.472707E+00
-4.870000E+00,+338.633E-03,+1.452607E+00
-4.865000E+00,-181.467E-03,+1.441300E+00
-4.860000E+00,-392.523E-03,+1.491552E+00
-4.855000E+00,+348.683E-03,+1.424969E+00
-4.850000E+00,+92.402E-03,+1.475220E+00
-4.845000E+00,-475.437E-03,+1.512908E+00
-4.840000E+00,+84.864E-03,+1.515421E+00
-4.835000E+00,+316.020E-03,+1.472707E+00
-4.830000E+00,-302.070E-03,+1.435019E+00
-4.825000E+00,-274.432E-03,+1.472707E+00
-4.820000E+00,+215.518E-03,+1.471451E+00
-4.815000E+00,-204.080E-03,+1.485270E+00
-4.810000E+00,-354.834E-03,+1.492808E+00
-4.805000E+00,+333.608E-03,+1.421200E+00
-4.800000E+00,+175.317E-03,+1.352104E+00
-4.795000E+00,-1.020663E+00,+1.671200E+00
-4.790000E+00,+165.266E-03,+1.672456E+00
-4.785000E+00,+615.015E-03,+1.585773E+00
-4.780000E+00,-20.663E-03,+1.452607E+00
-4.775000E+00,-269.407E-03,+1.432506E+00
-4.770000E+00,+285.869E-03,+1.455119E+00
-4.765000E+00,-520.663E-03,+1.521702E+00
-4.760000E+00,-73.427E-03,+1.435019E+00
-4.755000E+00,+454.211E-03,+1.364667E+00
-4.750000E+00,+12.000E-03,+1.352104E+00
-4.745000E+00,-613.628E-03,+1.372205E+00
-4.740000E+00,-111.116E-03,+1.472707E+00
-4.735000E+00,+137.628E-03,+1.512908E+00
-4.730000E+00,-462.874E-03,+1.573210E+00
-4.725000E+00,-108.603E-03,+1.582004E+00
-4.720000E+00,+486.874E-03,+1.636024E+00
-4.715000E+00,+1.074814E+00,+1.191300E+00
-4.710000E+00,-1.678955E+00,+1.811903E+00
-4.705000E+00,+1.192905E+00,+1.264165E+00
-4.700000E+00,-1.307095E+00,+1.951351E+00
-4.695000E+00,+780.844E-03,+1.599592E+00
-4.690000E+00,+17.025E-03,+1.472707E+00
-4.685000E+00,-1.025688E+00,+1.582004E+00
-4.680000E+00,+748.181E-03,+1.123461E+00
-4.675000E+00,-3.116141E+00,+2.171200E+00
-4.670000E+00,+1.740643E+00,+1.496577E+00
-4.665000E+00,+89.889E-03,+1.364667E+00
-4.660000E+00,+680.342E-03,+937.532E-03
-4.655000E+00,-199.055E-03,+958.888E-03
-4.650000E+00,-872.422E-03,+1.389793E+00
-4.645000E+00,-739.256E-03,+1.642305E+00
-4.640000E+00,+484.362E-03,+1.593310E+00
-4.635000E+00,+34.613E-03,+1.625974E+00
-4.630000E+00,+137.628E-03,+1.432506E+00
-4.625000E+00,-573.427E-03,+1.734014E+00
-4.620000E+00,+527.075E-03,+1.656124E+00
-4.615000E+00,-417.648E-03,+1.651099E+00
-4.610000E+00,-229.206E-03,+1.632255E+00
-4.605000E+00,+172.804E-03,+1.602104E+00
-4.600000E+00,+182.854E-03,+1.476476E+00
-4.595000E+00,-354.834E-03,+1.389793E+00
-4.590000E+00,+336.121E-03,+1.350848E+00
-4.585000E+00,+195.417E-03,+1.481501E+00
-4.580000E+00,-304.583E-03,+1.471451E+00
-4.575000E+00,-171.417E-03,+1.441300E+00
-4.570000E+00,+285.869E-03,+1.391049E+00
-4.565000E+00,-324.683E-03,+1.492808E+00
-4.560000E+00,-392.523E-03,+1.512908E+00
-4.555000E+00,+326.070E-03,+1.492808E+00
-4.550000E+00,+419.035E-03,+1.311903E+00
-4.545000E+00,-792.020E-03,+1.492808E+00
-4.540000E+00,-111.116E-03,+1.571954E+00
-4.535000E+00,+308.482E-03,+1.565672E+00
-4.530000E+00,-224.181E-03,+1.551853E+00
-4.525000E+00,+125.065E-03,+1.384768E+00
-4.520000E+00,+258.231E-03,+1.352104E+00
-4.515000E+00,-686.492E-03,+1.533009E+00
-4.510000E+00,-553.327E-03,+1.632255E+00
-4.505000E+00,+486.874E-03,+1.545572E+00
-4.500000E+00,+97.427E-03,+1.610898E+00
-4.495000E+00,-390.010E-03,+1.642305E+00
-4.490000E+00,+366.271E-03,+1.535521E+00
-4.485000E+00,+396.422E-03,+1.496577E+00
-4.480000E+00,-344.784E-03,+1.392305E+00
-4.475000E+00,-349.809E-03,+1.490295E+00
-4.470000E+00,+489.387E-03,+1.392305E+00
-4.465000E+00,-204.080E-03,+1.311903E+00
-4.460000E+00,-472.925E-03,+1.330748E+00
-4.455000E+00,+107.477E-03,+1.352104E+00
-4.450000E+00,-18.151E-03,+1.311903E+00
-4.445000E+00,-1.055839E+00,+1.573210E+00
-4.440000E+00,+280.844E-03,+1.575722E+00
-4.435000E+00,+333.608E-03,+1.593310E+00
-4.430000E+00,-63.377E-03,+1.535521E+00
-4.425000E+00,+147.678E-03,+1.412406E+00
-4.420000E+00,+255.719E-03,+1.432506E+00
-4.415000E+00,-538.251E-03,+1.625974E+00
-4.410000E+00,-234.231E-03,+1.595823E+00
-4.405000E+00,+223.055E-03,+1.677481E+00
-4.400000E+00,+577.327E-03,+1.414918E+00
-4.395000E+00,-550.814E-03,+1.404868E+00
-4.390000E+00,+283.357E-03,+1.314416E+00
-4.385000E+00,-83.477E-03,+1.441300E+00
-4.380000E+00,-470.412E-03,+1.491552E+00
-4.375000E+00,+187.879E-03,+1.392305E+00
-4.370000E+00,+295.920E-03,+1.372205E+00
-4.365000E+00,-452.824E-03,+1.533009E+00
-4.360000E+00,-304.583E-03,+1.471451E+00
-4.355000E+00,+263.256E-03,+1.525471E+00
-4.350000E+00,+135.116E-03,+1.512908E+00
-4.345000E+00,-430.211E-03,+1.561903E+00
-4.340000E+00,+326.070E-03,+1.472707E+00
-4.335000E+00,+218.030E-03,+1.441300E+00
-4.330000E+00,-382.472E-03,+1.472707E+00
-4.325000E+00,-153.829E-03,+1.481501E+00
-4.320000E+00,+333.608E-03,+1.455119E+00
-4.315000E+00,-284.482E-03,+1.445069E+00
-4.310000E+00,-231.719E-03,+1.392305E+00
-4.305000E+00,+27.075E-03,+1.429994E+00
-4.300000E+00,-108.603E-03,+1.553109E+00
-4.295000E+00,-189.005E-03,+1.505371E+00
-4.290000E+00,+135.116E-03,+1.511652E+00
-4.285000E+00,+348.683E-03,+1.465170E+00
-4.280000E+00,-462.874E-03,+1.471451E+00
-4.275000E+00,+6.975E-03,+1.412406E+00
-4.270000E+00,+215.518E-03,+1.432506E+00
-4.265000E+00,-342.271E-03,+1.472707E+00
-4.260000E+00,-384.985E-03,+1.472707E+00
-4.255000E+00,+213.005E-03,+1.472707E+00
-4.250000E+00,+132.603E-03,+1.452607E+00
-4.245000E+00,-309.608E-03,+1.432506E+00
-4.240000E+00,-30.714E-03,+1.491552E+00
-4.235000E+00,+84.864E-03,+1.533009E+00
-4.230000E+00,-344.784E-03,+1.573210E+00
-4.225000E+00,-55.839E-03,+1.553109E+00
-4.220000E+00,+336.121E-03,+1.533009E+00
-4.215000E+00,-221.668E-03,+1.553109E+00
-4.210000E+00,-309.608E-03,+1.573210E+00
-4.205000E+00,+293.407E-03,+1.536778E+00
-4.200000E+00,+19.538E-03,+1.411150E+00
-4.195000E+00,-744.281E-03,+1.605873E+00
-4.190000E+00,-55.839E-03,+1.531753E+00
-4.185000E+00,+642.653E-03,+1.384768E+00
-4.180000E+00,-905.085E-03,+1.452607E+00
-4.175000E+00,-2.322171E+00,+1.821954E+00
-4.170000E+00,+866.271E-03,+1.942557E+00
-4.165000E+00,+562.251E-03,+1.646074E+00
-4.160000E+00,+635.116E-03,+1.186275E+00
-4.155000E+00,+1.172804E+00,+1.179994E+00
-4.150000E+00,-1.379960E+00,+1.570697E+00
-4.145000E+00,-1.256844E+00,+1.932506E+00
-4.140000E+00,+1.052201E+00,+1.613411E+00
-4.135000E+00,+1.210492E+00,+1.050597E+00
-4.130000E+00,-781.970E-03,+1.211401E+00
-4.125000E+00,-734.231E-03,+1.441300E+00
-4.120000E+00,+87.377E-03,+1.492808E+00
-4.115000E+00,+34.613E-03,+1.401099E+00
-4.110000E+00,-349.809E-03,+1.492808E+00
-4.105000E+00,+84.864E-03,+1.633511E+00
-4.100000E+00,+52.201E-03,+1.633511E+00
-4.095000E+00,+366.271E-03,+1.375974E+00
-4.090000E+00,-70.915E-03,+1.411150E+00
-4.085000E+00,-176.442E-03,+1.461401E+00
-4.080000E+00,-792.020E-03,+1.693813E+00
-4.075000E+00,+62.251E-03,+1.673712E+00
-4.070000E+00,+534.613E-03,+1.595823E+00
-4.065000E+00,-33.226E-03,+1.521702E+00
-4.060000E+00,-153.829E-03,+1.535521E+00
-4.055000E+00,+187.879E-03,+1.485270E+00
-4.050000E+00,+14.513E-03,+1.451351E+00
-4.045000E+00,-493.025E-03,+1.492808E+00
-4.040000E+00,+92.402E-03,+1.451351E+00
-4.035000E+00,+97.427E-03,+1.452607E+00
-4.030000E+00,-384.985E-03,+1.472707E+00
-4.025000E+00,-108.603E-03,+1.481501E+00
-4.020000E+00,+172.804E-03,+1.535521E+00
-4.015000E+00,-229.206E-03,+1.605873E+00
-4.010000E+00,-113.628E-03,+1.573210E+00
-4.005000E+00,+373.809E-03,+1.481501E+00
-4.000000E+00,+54.714E-03,+1.412406E+00
-3.995000E+00,-515.638E-03,+1.452607E+00
-3.990000E+00,+6.975E-03,+1.472707E+00
-3.985000E+00,+39.638E-03,+1.490295E+00
-3.980000E+00,-304.583E-03,+1.492808E+00
-3.975000E+00,-50.814E-03,+1.472707E+00
-3.970000E+00,+172.804E-03,+1.512908E+00
-3.965000E+00,-319.658E-03,+1.570697E+00
-3.960000E+00,-35.739E-03,+1.515421E+00
-3.955000E+00,+132.603E-03,+1.501602E+00
-3.950000E+00,+94.915E-03,+1.451351E+00
-3.945000E+00,-591.015E-03,+1.582004E+00
-3.940000E+00,+207.980E-03,+1.553109E+00
-3.935000E+00,+235.618E-03,+1.505371E+00
-3.930000E+00,-189.005E-03,+1.515421E+00
-3.925000E+00,+245.668E-03,+1.375974E+00
-3.920000E+00,+464.261E-03,+1.230245E+00
-3.915000E+00,-324.683E-03,+1.200094E+00
-3.910000E+00,-784.482E-03,+1.330748E+00
-3.905000E+00,-229.206E-03,+1.521702E+00
-3.900000E+00,-148.804E-03,+1.656124E+00
-3.895000E+00,-131.216E-03,+1.673712E+00
-3.890000E+00,+408.985E-03,+1.615923E+00
-3.885000E+00,+155.216E-03,+1.625974E+00
-3.880000E+00,-148.804E-03,+1.593310E+00
-3.875000E+00,+17.025E-03,+1.533009E+00
-3.870000E+00,-621.166E-03,+1.873461E+00
-3.865000E+00,+308.482E-03,+1.545572E+00
-3.860000E+00,+542.151E-03,+1.250346E+00
-3.855000E+00,-292.020E-03,+1.501602E+00
-3.850000E+00,-183.980E-03,+1.512908E+00
-3.845000E+00,-292.020E-03,+1.512908E+00
-3.840000E+00,+52.201E-03,+1.492808E+00
-3.835000E+00,+74.814E-03,+1.501602E+00
-3.830000E+00,-221.668E-03,+1.495320E+00
-3.825000E+00,-28.201E-03,+1.492808E+00
-3.820000E+00,+132.603E-03,+1.492808E+00
-3.815000E+00,-148.804E-03,+1.481501E+00
-3.810000E+00,-189.005E-03,+1.492808E+00
-3.805000E+00,+84.864E-03,+1.492808E+00
-3.800000E+00,-28.201E-03,+1.492808E+00
-3.795000E+00,-229.206E-03,+1.492808E+00
-3.790000E+00,+87.377E-03,+1.512908E+00
-3.785000E+00,+12.000E-03,+1.512908E+00
-3.780000E+00,-264.382E-03,+1.492808E+00
-3.775000E+00,-50.814E-03,+1.492808E+00
-3.770000E+00,+59.739E-03,+1.492808E+00
-3.765000E+00,-163.879E-03,+1.501602E+00
-3.760000E+00,-189.005E-03,+1.512908E+00
-3.755000E+00,+92.402E-03,+1.492808E+00
-3.750000E+00,-63.377E-03,+1.496577E+00
-3.745000E+00,-269.407E-03,+1.525471E+00
-3.740000E+00,+87.377E-03,+1.531753E+00
-3.735000E+00,+52.201E-03,+1.512908E+00
-3.730000E+00,-191.518E-03,+1.533009E+00
-3.725000E+00,-28.201E-03,+1.505371E+00
-3.720000E+00,+94.915E-03,+1.535521E+00
-3.715000E+00,-148.804E-03,+1.553109E+00
-3.710000E+00,-183.980E-03,+1.553109E+00
-3.705000E+00,+107.477E-03,+1.553109E+00
-3.700000E+00,-63.377E-03,+1.553109E+00
-3.695000E+00,-269.407E-03,+1.553109E+00
-3.690000E+00,+92.402E-03,+1.553109E+00
-3.685000E+00,+34.613E-03,+1.553109E+00
-3.680000E+00,-229.206E-03,+1.555622E+00
-3.675000E+00,-10.613E-03,+1.573210E+00
-3.670000E+00,+132.603E-03,+1.555622E+00
-3.665000E+00,-189.005E-03,+1.585773E+00
-3.660000E+00,-151.317E-03,+1.573210E+00
-3.655000E+00,+107.477E-03,+1.573210E+00
-3.650000E+00,-28.201E-03,+1.592054E+00
-3.645000E+00,-229.206E-03,+1.585773E+00
-3.640000E+00,+87.377E-03,+1.573210E+00
-3.635000E+00,+57.226E-03,+1.573210E+00
-3.630000E+00,-229.206E-03,+1.573210E+00
-3.625000E+00,-10.613E-03,+1.582004E+00
-3.620000E+00,+132.603E-03,+1.573210E+00
-3.615000E+00,-148.804E-03,+1.573210E+00
-3.610000E+00,-148.804E-03,+1.573210E+00
-3.605000E+00,+132.603E-03,+1.573210E+00
-3.600000E+00,-63.377E-03,+1.573210E+00
-3.595000E+00,-204.080E-03,+1.573210E+00
-3.590000E+00,+92.402E-03,+1.573210E+00
-3.585000E+00,+52.201E-03,+1.573210E+00
-3.580000E+00,-229.206E-03,+1.573210E+00
-3.575000E+00,-28.201E-03,+1.582004E+00
-3.570000E+00,+132.603E-03,+1.555622E+00
-3.565000E+00,-181.467E-03,+1.573210E+00
-3.560000E+00,-151.317E-03,+1.573210E+00
-3.555000E+00,+132.603E-03,+1.573210E+00
-3.550000E+00,-68.402E-03,+1.573210E+00
-3.545000E+00,-229.206E-03,+1.573210E+00
-3.540000E+00,+87.377E-03,+1.573210E+00
-3.535000E+00,+27.075E-03,+1.573210E+00
-3.530000E+00,-229.206E-03,+1.573210E+00
-3.525000E+00,-28.201E-03,+1.573210E+00
-3.520000E+00,+132.603E-03,+1.573210E+00
-3.515000E+00,-163.879E-03,+1.573210E+00
-3.510000E+00,-189.005E-03,+1.573210E+00
-3.505000E+00,+107.477E-03,+1.582004E+00
-3.500000E+00,-68.402E-03,+1.571954E+00
-3.495000E+00,-251.819E-03,+1.573210E+00
-3.490000E+00,+87.377E-03,+1.573210E+00
-3.485000E+00,+34.613E-03,+1.573210E+00
-3.480000E+00,-229.206E-03,+1.555622E+00
-3.475000E+00,-10.613E-03,+1.561903E+00
-3.470000E+00,+132.603E-03,+1.573210E+00
-3.465000E+00,-189.005E-03,+1.573210E+00
-3.460000E+00,-151.317E-03,+1.573210E+00
-3.455000E+00,+132.603E-03,+1.573210E+00
-3.450000E+00,-63.377E-03,+1.555622E+00
-3.445000E+00,-251.819E-03,+1.573210E+00
-3.440000E+00,+87.377E-03,+1.573210E+00
-3.435000E+00,+34.613E-03,+1.573210E+00
-3.430000E+00,-229.206E-03,+1.573210E+00
-3.425000E+00,-10.613E-03,+1.573210E+00
-3.420000E+00,+132.603E-03,+1.573210E+00
-3.415000E+00,-171.417E-03,+1.573210E+00
-3.410000E+00,-189.005E-03,+1.573210E+00
-3.405000E+00,+92.402E-03,+1.573210E+00
-3.400000E+00,-101.065E-03,+1.573210E+00
-3.395000E+00,-251.819E-03,+1.573210E+00
-3.390000E+00,+87.377E-03,+1.555622E+00
-3.385000E+00,+12.000E-03,+1.573210E+00
-3.380000E+00,-229.206E-03,+1.556878E+00
-3.375000E+00,-10.613E-03,+1.585773E+00
-3.370000E+00,+132.603E-03,+1.573210E+00
-3.365000E+00,-163.879E-03,+1.573210E+00
-3.360000E+00,-189.005E-03,+1.573210E+00
-3.355000E+00,+132.603E-03,+1.573210E+00
-3.350000E+00,-63.377E-03,+1.573210E+00
-3.345000E+00,-229.206E-03,+1.573210E+00
-3.340000E+00,+54.714E-03,+1.573210E+00
-3.335000E+00,+27.075E-03,+1.573210E+00
-3.330000E+00,-231.719E-03,+1.571954E+00
-3.325000E+00,-28.201E-03,+1.565672E+00
-3.320000E+00,+132.603E-03,+1.573210E+00
-3.315000E+00,-163.879E-03,+1.573210E+00
-3.310000E+00,-151.317E-03,+1.573210E+00
-3.305000E+00,+107.477E-03,+1.553109E+00
-3.300000E+00,-63.377E-03,+1.571954E+00
-3.295000E+00,-251.819E-03,+1.573210E+00
-3.290000E+00,+92.402E-03,+1.571954E+00
-3.285000E+00,+52.201E-03,+1.565672E+00
-3.280000E+00,-224.181E-03,+1.573210E+00
-3.275000E+00,-10.613E-03,+1.561903E+00
-3.270000E+00,+167.779E-03,+1.573210E+00
-3.265000E+00,-181.467E-03,+1.561903E+00
-3.260000E+00,-143.779E-03,+1.573210E+00
-3.255000E+00,+107.477E-03,+1.573210E+00
-3.250000E+00,-63.377E-03,+1.573210E+00
-3.245000E+00,-229.206E-03,+1.561903E+00
-3.240000E+00,+52.201E-03,+1.571954E+00
-3.235000E+00,+34.613E-03,+1.553109E+00
-3.230000E+00,-229.206E-03,+1.571954E+00
-3.225000E+00,-10.613E-03,+1.553109E+00
-3.220000E+00,+137.628E-03,+1.535521E+00
-3.215000E+00,-189.005E-03,+1.561903E+00
-3.210000E+00,-189.005E-03,+1.555622E+00
-3.205000E+00,+107.477E-03,+1.553109E+00
-3.200000E+00,-68.402E-03,+1.571954E+00
-3.195000E+00,-229.206E-03,+1.556878E+00
-3.190000E+00,+82.352E-03,+1.555622E+00
-3.185000E+00,+34.613E-03,+1.553109E+00
-3.180000E+00,-229.206E-03,+1.553109E+00
-3.175000E+00,-10.613E-03,+1.541803E+00
-3.170000E+00,+132.603E-03,+1.553109E+00
-3.165000E+00,-163.879E-03,+1.533009E+00
-3.160000E+00,-189.005E-03,+1.551853E+00
-3.155000E+00,+132.603E-03,+1.521702E+00
-3.150000E+00,+82.352E-03,+2.201351E+00
-3.145000E+00,+1.097427E+00,+795.572E-03
-3.140000E+00,-905.085E-03,+2.234014E+00
-3.135000E+00,+640.141E-03,+864.667E-03
-3.130000E+00,-1.683980E+00,+2.388537E+00
-3.125000E+00,+1.255719E+00,+716.426E-03
-3.120000E+00,-683.980E-03,+1.535521E+00
-3.115000E+00,-292.020E-03,+1.530496E+00
-3.110000E+00,-73.427E-03,+1.533009E+00
-3.105000E+00,+213.005E-03,+1.501602E+00
-3.100000E+00,-23.176E-03,+1.472707E+00
-3.095000E+00,-244.281E-03,+1.461401E+00
-3.090000E+00,+92.402E-03,+1.452607E+00
-3.085000E+00,+57.226E-03,+1.375974E+00
-3.080000E+00,-264.382E-03,+1.338285E+00
-3.075000E+00,-28.201E-03,+1.352104E+00
-3.070000E+00,+132.603E-03,+1.211401E+00
-3.065000E+00,-171.417E-03,+1.272959E+00
-3.060000E+00,-148.804E-03,+1.375974E+00
-3.055000E+00,+107.477E-03,+1.298084E+00
-3.050000E+00,-28.201E-03,+1.368436E+00
-3.045000E+00,-229.206E-03,+1.246577E+00
-3.040000E+00,+54.714E-03,+1.009140E+00
-3.035000E+00,+52.201E-03,+1.332004E+00
-3.030000E+00,-264.382E-03,+1.452607E+00
-3.025000E+00,-10.613E-03,+1.461401E+00
-3.020000E+00,+132.603E-03,+1.455119E+00
-3.015000E+00,-189.005E-03,+1.465170E+00
-3.010000E+00,-151.317E-03,+1.471451E+00
-3.005000E+00,+177.829E-03,+1.452607E+00
-3.000000E+00,-63.377E-03,+1.472707E+00
-2.995000E+00,-229.206E-03,+1.452607E+00
-2.990000E+00,+87.377E-03,+1.408637E+00
-2.985000E+00,+27.075E-03,+1.384768E+00
-2.980000E+00,-229.206E-03,+1.451351E+00
-2.975000E+00,-10.613E-03,+1.412406E+00
-2.970000E+00,+92.402E-03,+1.392305E+00
-2.965000E+00,-163.879E-03,+1.421200E+00
-2.960000E+00,-151.317E-03,+1.394818E+00
-2.955000E+00,+115.015E-03,+1.412406E+00
-2.950000E+00,-63.377E-03,+1.412406E+00
-2.945000E+00,-244.281E-03,+1.412406E+00
-2.940000E+00,+92.402E-03,+1.432506E+00
-2.935000E+00,+34.613E-03,+1.472707E+00
-2.930000E+00,-189.005E-03,+1.472707E+00
-2.925000E+00,-28.201E-03,+1.461401E+00
-2.920000E+00,+167.779E-03,+1.472707E+00
-2.915000E+00,-189.005E-03,+1.472707E+00
-2.910000E+00,-148.804E-03,+1.472707E+00
-2.905000E+00,+107.477E-03,+1.472707E+00
-2.900000E+00,-63.377E-03,+1.471451E+00
-2.895000E+00,-229.206E-03,+1.472707E+00
-2.890000E+00,+92.402E-03,+1.472707E+00
-2.885000E+00,+12.000E-03,+1.472707E+00
-2.880000E+00,-269.407E-03,+1.412406E+00
-2.875000E+00,+27.075E-03,+1.412406E+00
-2.870000E+00,+132.603E-03,+1.414918E+00
-2.865000E+00,-211.618E-03,+1.231501E+00
-2.860000E+00,-113.628E-03,+1.414918E+00
-2.855000E+00,+107.477E-03,+1.432506E+00
-2.850000E+00,-103.578E-03,+1.432506E+00
-2.845000E+00,-229.206E-03,+1.345823E+00
-2.840000E+00,+52.201E-03,+1.472707E+00
-2.835000E+00,+17.025E-03,+1.472707E+00
-2.830000E+00,-229.206E-03,+1.436275E+00
-2.825000E+00,+12.000E-03,+1.445069E+00
-2.820000E+00,+94.915E-03,+1.432506E+00
-2.815000E+00,-189.005E-03,+1.262908E+00
-2.810000E+00,-183.980E-03,+1.432506E+00
-2.805000E+00,+115.015E-03,+1.441300E+00
-2.800000E+00,-103.578E-03,+1.267934E+00
-2.795000E+00,-229.206E-03,+1.300597E+00
-2.790000E+00,+92.402E-03,+1.311903E+00
-2.785000E+00,+12.000E-03,+1.324466E+00
-2.780000E+00,-264.382E-03,+1.370949E+00
-2.775000E+00,-10.613E-03,+1.367180E+00
-2.770000E+00,+94.915E-03,+1.392305E+00
-2.765000E+00,-189.005E-03,+1.384768E+00
-2.760000E+00,-108.603E-03,+1.391049E+00
-2.755000E+00,+132.603E-03,+1.404868E+00
-2.750000E+00,-103.578E-03,+1.372205E+00
-2.745000E+00,-204.080E-03,+1.380999E+00
-2.740000E+00,+87.377E-03,+1.290547E+00
-2.735000E+00,-3.075E-03,+1.311903E+00
-2.730000E+00,-261.869E-03,+1.311903E+00
-2.725000E+00,+12.000E-03,+1.320697E+00
-2.720000E+00,+94.915E-03,+1.290547E+00
-2.715000E+00,-189.005E-03,+1.311903E+00
-2.710000E+00,-73.427E-03,+1.311903E+00
-2.705000E+00,+115.015E-03,+1.300597E+00
-2.700000E+00,-68.402E-03,+1.270446E+00
-2.695000E+00,-229.206E-03,+1.304366E+00
-2.690000E+00,+87.377E-03,+1.412406E+00
-2.685000E+00,-3.075E-03,+1.392305E+00
-2.680000E+00,-229.206E-03,+1.392305E+00
-2.675000E+00,+27.075E-03,+1.364667E+00
-2.670000E+00,+132.603E-03,+1.315672E+00
-2.665000E+00,-189.005E-03,+1.352104E+00
-2.660000E+00,-151.317E-03,+1.432506E+00
-2.655000E+00,+62.251E-03,+1.432506E+00
-2.650000E+00,-68.402E-03,+1.412406E+00
-2.645000E+00,-229.206E-03,+1.421200E+00
-2.640000E+00,+87.377E-03,+1.414918E+00
-2.635000E+00,+12.000E-03,+1.404868E+00
-2.630000E+00,-269.407E-03,+1.412406E+00
-2.625000E+00,+27.075E-03,+1.445069E+00
-2.620000E+00,+132.603E-03,+1.391049E+00
-2.615000E+00,-189.005E-03,+1.311903E+00
-2.610000E+00,-148.804E-03,+1.332004E+00
-2.605000E+00,+132.603E-03,+1.358386E+00
-2.600000E+00,-68.402E-03,+1.235270E+00
-2.595000E+00,-229.206E-03,+1.251602E+00
-2.590000E+00,+54.714E-03,+1.294315E+00
-2.585000E+00,+12.000E-03,+1.360898E+00
-2.580000E+00,-231.719E-03,+1.388537E+00
-2.575000E+00,+12.000E-03,+1.432506E+00
-2.570000E+00,+132.603E-03,+1.291803E+00
-2.565000E+00,-204.080E-03,+1.352104E+00
-2.560000E+00,-113.628E-03,+1.328235E+00
-2.555000E+00,+132.603E-03,+1.421200E+00
-2.550000E+00,-108.603E-03,+1.431250E+00
-2.545000E+00,-211.618E-03,+1.421200E+00
-2.540000E+00,+87.377E-03,+1.314416E+00
-2.535000E+00,-3.075E-03,+1.335773E+00
-2.530000E+00,-229.206E-03,+1.254114E+00
-2.525000E+00,+12.000E-03,+1.300597E+00
-2.520000E+00,+92.402E-03,+1.294315E+00
-2.515000E+00,-189.005E-03,+1.183763E+00
-2.510000E+00,-111.116E-03,+929.994E-03
-2.505000E+00,+132.603E-03,+958.888E-03
-2.500000E+00,-103.578E-03,+948.838E-03
-2.495000E+00,-211.618E-03,+909.893E-03
-2.490000E+00,+87.377E-03,+947.582E-03
-2.485000E+00,+17.025E-03,+978.989E-03
-2.480000E+00,-231.719E-03,+989.039E-03
-2.475000E+00,+6.975E-03,+1.010396E+00
-2.470000E+00,+94.915E-03,+1.010396E+00
-2.465000E+00,-189.005E-03,+1.039290E+00
-2.460000E+00,-116.141E-03,+1.009140E+00
-2.455000E+00,+115.015E-03,+999.089E-03
-2.450000E+00,-103.578E-03,+1.030496E+00
-2.445000E+00,-211.618E-03,+1.019190E+00
-2.440000E+00,+54.714E-03,+1.030496E+00
-2.435000E+00,-10.613E-03,+1.022959E+00
-2.430000E+00,-261.869E-03,+1.029240E+00
-2.425000E+00,+12.000E-03,+1.010396E+00
-2.420000E+00,+132.603E-03,+1.010396E+00
-2.415000E+00,-189.005E-03,+1.014165E+00
-2.410000E+00,-113.628E-03,+1.066929E+00
-2.405000E+00,+132.603E-03,+1.271702E+00
-2.400000E+00,-108.603E-03,+1.310647E+00
-2.395000E+00,-204.080E-03,+1.311903E+00
-2.390000E+00,+54.714E-03,+1.154868E+00
-2.385000E+00,-3.075E-03,+1.275471E+00
-2.380000E+00,-264.382E-03,+1.251602E+00
-2.375000E+00,-10.613E-03,+1.251602E+00
-2.370000E+00,+92.402E-03,+1.350848E+00
-2.365000E+00,-189.005E-03,+1.340798E+00
-2.360000E+00,-143.779E-03,+1.372205E+00
-2.355000E+00,+147.678E-03,+1.360898E+00
-2.350000E+00,-1.781970E+00,+1.990295E+00
-2.345000E+00,-1.101065E+00,+2.587029E+00
-2.340000E+00,+1.680342E+00,+2.163662E+00
-2.335000E+00,+3.210492E+00,+987.783E-03
-2.330000E+00,+798.432E-03,+628.486E-03
-2.325000E+00,-3.565889E+00,+1.293059E+00
-2.320000E+00,-2.749307E+00,+2.656124E+00
-2.315000E+00,+3.398935E+00,+1.289290E+00
-2.310000E+00,+1.805970E+00,+628.486E-03
-2.305000E+00,-4.570915E+00,+2.337029E+00
-2.300000E+00,+2.414010E+00,+1.471451E+00
-2.295000E+00,+1.258231E+00,+628.486E-03
-2.290000E+00,-4.121166E+00,+2.633511E+00
-2.285000E+00,+4.881347E+00,+628.486E-03
-2.280000E+00,-4.751819E+00,+2.089542E+00
-2.275000E+00,+4.006975E+00,+834.516E-03
-2.270000E+00,-3.364884E+00,+1.783009E+00
-2.265000E+00,+3.810995E+00,+821.954E-03
-2.260000E+00,-4.744281E+00,+2.212657E+00
-2.255000E+00,+5.117528E+00,+628.486E-03
-2.250000E+00,-4.942774E+00,+2.556878E+00
-2.245000E+00,+1.594915E+00,+716.426E-03
-2.240000E+00,+1.637628E+00,+1.276728E+00
-2.235000E+00,-5.068402E+00,+2.470195E+00
-2.230000E+00,+2.745668E+00,+628.486E-03
-2.225000E+00,+3.408985E+00,+754.114E-03
-2.220000E+00,-4.716643E+00,+2.477733E+00
-2.215000E+00,-3.329709E+00,+1.842054E+00
-2.210000E+00,+3.584864E+00,+628.486E-03
-2.205000E+00,+4.278332E+00,+686.275E-03
-2.200000E+00,-508.100E-03,+1.560647E+00
-2.195000E+00,-4.864884E+00,+2.495320E+00
-2.190000E+00,-4.995538E+00,+2.565672E+00
-2.185000E+00,-3.211618E+00,+2.059391E+00
-2.180000E+00,-1.111116E+00,+1.554366E+00
-2.175000E+00,+1.778332E+00,+971.451E-03
-2.170000E+00,+1.735618E+00,+1.024215E+00
-2.165000E+00,+1.680342E+00,+888.537E-03
-2.160000E+00,+1.773307E+00,+948.838E-03
-2.155000E+00,+662.754E-03,+1.299341E+00
-2.150000E+00,-2.638754E+00,+1.936275E+00
-2.145000E+00,-4.390010E+00,+2.386024E+00
-2.140000E+00,-4.812121E+00,+2.286778E+00
-2.135000E+00,-3.460362E+00,+2.063160E+00
-2.130000E+00,+3.112502E+00,+659.893E-03
-2.125000E+00,+4.994412E+00,+628.486E-03
-2.120000E+00,+2.255719E+00,+967.682E-03
-2.115000E+00,-4.593528E+00,+2.355873E+00
-2.110000E+00,-96.040E-03,+1.195069E+00
-2.105000E+00,+5.092402E+00,+628.486E-03
-2.100000E+00,-201.568E-03,+1.437532E+00
-2.095000E+00,-4.055839E+00,+2.033009E+00
-2.090000E+00,+5.069789E+00,+628.486E-03
-2.085000E+00,-2.400060E+00,+2.085773E+00
-2.080000E+00,-591.015E-03,+1.266677E+00
-2.075000E+00,+2.670291E+00,+1.050597E+00
-2.070000E+00,-3.344784E+00,+1.924969E+00
-2.065000E+00,+3.888884E+00,+777.984E-03
-2.060000E+00,-4.452824E+00,+2.164918E+00
-2.055000E+00,+2.941648E+00,+980.245E-03
-2.050000E+00,-2.043276E+00,+1.573210E+00
-2.045000E+00,-367.397E-03,+1.654868E+00
-2.040000E+00,+2.376322E+00,+685.019E-03
-2.035000E+00,-4.096040E+00,+2.416175E+00
-2.030000E+00,+3.944161E+00,+703.863E-03
-2.025000E+00,+6.975E-03,+933.763E-03
-2.020000E+00,-5.005588E+00,+2.533009E+00
-2.015000E+00,+2.496925E+00,+1.110898E+00
-2.010000E+00,+4.670291E+00,+628.486E-03
-2.005000E+00,-1.435236E+00,+1.398587E+00
-2.000000E+00,-4.744281E+00,+2.520446E+00
-1.995000E+00,+677.829E-03,+1.441300E+00
-1.990000E+00,+3.836121E+00,+779.240E-03
-1.985000E+00,+4.481849E+00,+628.486E-03
-1.980000E+00,+3.745668E+00,+663.662E-03
-1.975000E+00,-488.000E-03,+1.228989E+00
-1.970000E+00,-1.852322E+00,+1.387280E+00
-1.965000E+00,-2.613628E+00,+1.705119E+00
-1.960000E+00,-4.339759E+00,+1.917431E+00
-1.955000E+00,-2.907598E+00,+1.737783E+00
-1.950000E+00,-2.869910E+00,+1.551853E+00
-1.945000E+00,-2.711618E+00,+1.582004E+00
-1.940000E+00,-1.151317E+00,+1.095823E+00
-1.935000E+00,+3.102452E+00,+641.049E-03
-1.930000E+00,+4.524563E+00,+630.999E-03
-1.925000E+00,+2.919035E+00,+1.191300E+00
-1.920000E+00,-65.889E-03,+1.978989E+00
-1.915000E+00,-4.759357E+00,+2.225220E+00
-1.910000E+00,-1.663879E+00,+1.117180E+00
-1.905000E+00,+4.067276E+00,+698.838E-03
-1.900000E+00,+260.744E-03,+1.842054E+00
-1.895000E+00,-4.699055E+00,+2.318185E+00
-1.890000E+00,+584.864E-03,+673.712E-03
-1.885000E+00,+2.486874E+00,+1.435019E+00
-1.880000E+00,-4.739256E+00,+1.968939E+00
-1.875000E+00,+2.333608E+00,+686.275E-03
-1.870000E+00,-2.618653E+00,+2.379743E+00
-1.865000E+00,+388.884E-03,+1.070697E+00
-1.860000E+00,-591.015E-03,+2.177481E+00
-1.855000E+00,-153.829E-03,+1.318185E+00
-1.850000E+00,-108.603E-03,+1.352104E+00
-1.845000E+00,-211.618E-03,+1.311903E+00
-1.840000E+00,+92.402E-03,+1.330748E+00
-1.835000E+00,-28.201E-03,+1.320697E+00
-1.830000E+00,-229.206E-03,+1.330748E+00
-1.825000E+00,+52.201E-03,+1.324466E+00
-1.820000E+00,+54.714E-03,+1.311903E+00
-1.815000E+00,-189.005E-03,+1.304366E+00
-1.810000E+00,-70.915E-03,+1.290547E+00
-1.805000E+00,+132.603E-03,+1.304366E+00
-1.800000E+00,-143.779E-03,+1.290547E+00
-1.795000E+00,-176.442E-03,+1.231501E+00
-1.790000E+00,+54.714E-03,+1.174969E+00
-1.785000E+00,-28.201E-03,+978.989E-03
-1.780000E+00,-229.206E-03,+1.372205E+00
-1.775000E+00,+27.075E-03,+1.235270E+00
-1.770000E+00,+94.915E-03,+1.213913E+00
-1.765000E+00,-189.005E-03,+1.143562E+00
-1.760000E+00,-73.427E-03,+1.065672E+00
-1.755000E+00,+177.829E-03,+978.989E-03
-1.750000E+00,-111.116E-03,+1.391049E+00
-1.745000E+00,-377.447E-03,+1.364667E+00
-1.740000E+00,+92.402E-03,+1.355873E+00
-1.735000E+00,-3.075E-03,+1.372205E+00
-1.730000E+00,-261.869E-03,+1.350848E+00
-1.725000E+00,+52.201E-03,+1.332004E+00
-1.720000E+00,+57.226E-03,+1.334516E+00
-1.715000E+00,-189.005E-03,+1.344567E+00
-1.710000E+00,-108.603E-03,+1.294315E+00
-1.705000E+00,+132.603E-03,+1.320697E+00
-1.700000E+00,-143.779E-03,+1.330748E+00
-1.695000E+00,-211.618E-03,+1.295572E+00
-1.690000E+00,+92.402E-03,+1.271702E+00
-1.685000E+00,-28.201E-03,+1.291803E+00
-1.680000E+00,-269.407E-03,+1.216426E+00
-1.675000E+00,+52.201E-03,+1.211401E+00
-1.670000E+00,+127.578E-03,+1.173712E+00
-1.665000E+00,-204.080E-03,+1.195069E+00
-1.660000E+00,-111.116E-03,+1.230245E+00
-1.655000E+00,+147.678E-03,+1.191300E+00
-1.650000E+00,-111.116E-03,+1.191300E+00
-1.645000E+00,-211.618E-03,+1.226476E+00
-1.640000E+00,+87.377E-03,+1.151099E+00
-1.635000E+00,-3.075E-03,+1.244064E+00
-1.630000E+00,-229.206E-03,+1.113411E+00
-1.625000E+00,+27.075E-03,+1.188788E+00
-1.620000E+00,+92.402E-03,+1.151099E+00
-1.615000E+00,-181.467E-03,+1.143562E+00
-1.610000E+00,-111.116E-03,+1.211401E+00
-1.605000E+00,+132.603E-03,+1.215170E+00
-1.600000E+00,-143.779E-03,+1.290547E+00
-1.595000E+00,-211.618E-03,+1.304366E+00
-1.590000E+00,+92.402E-03,+1.161150E+00
-1.585000E+00,-3.075E-03,+1.183763E+00
-1.580000E+00,-264.382E-03,+1.090798E+00
-1.575000E+00,+67.276E-03,+1.244064E+00
-1.570000E+00,+57.226E-03,+1.350848E+00
-1.565000E+00,-181.467E-03,+1.432506E+00
-1.560000E+00,-111.116E-03,+1.414918E+00
-1.555000E+00,+172.804E-03,+1.432506E+00
-1.550000E+00,-108.603E-03,+1.432506E+00
-1.545000E+00,-211.618E-03,+1.421200E+00
-1.540000E+00,+87.377E-03,+1.432506E+00
-1.535000E+00,-28.201E-03,+1.452607E+00
-1.530000E+00,-231.719E-03,+1.450094E+00
-1.525000E+00,+27.075E-03,+1.465170E+00
-1.520000E+00,+94.915E-03,+1.491552E+00
-1.515000E+00,-229.206E-03,+1.485270E+00
-1.510000E+00,-70.915E-03,+1.475220E+00
-1.505000E+00,+132.603E-03,+1.481501E+00
-1.500000E+00,-148.804E-03,+1.492808E+00
-1.495000E+00,-189.005E-03,+1.472707E+00
-1.490000E+00,+92.402E-03,+1.491552E+00
-1.485000E+00,-28.201E-03,+1.485270E+00
-1.480000E+00,-231.719E-03,+1.472707E+00
-1.475000E+00,+27.075E-03,+1.481501E+00
-1.470000E+00,+132.603E-03,+1.472707E+00
-1.465000E+00,-194.030E-03,+1.485270E+00
-1.460000E+00,-70.915E-03,+1.492808E+00
-1.455000E+00,+132.603E-03,+1.472707E+00
-1.450000E+00,-143.779E-03,+1.492808E+00
-1.445000E+00,-189.005E-03,+1.485270E+00
-1.440000E+00,+87.377E-03,+1.475220E+00
-1.435000E+00,-28.201E-03,+1.481501E+00
-1.430000E+00,-231.719E-03,+1.491552E+00
-1.425000E+00,+52.201E-03,+1.485270E+00
-1.420000E+00,+94.915E-03,+1.472707E+00
-1.415000E+00,-204.080E-03,+1.472707E+00
-1.410000E+00,-70.915E-03,+1.472707E+00
-1.405000E+00,+132.603E-03,+1.472707E+00
-1.400000E+00,-143.779E-03,+1.472707E+00
-1.395000E+00,-211.618E-03,+1.472707E+00
-1.390000E+00,+92.402E-03,+1.472707E+00
-1.385000E+00,-43.276E-03,+1.481501E+00
-1.380000E+00,-264.382E-03,+1.472707E+00
-1.375000E+00,+52.201E-03,+1.472707E+00
-1.370000E+00,+92.402E-03,+1.491552E+00
-1.365000E+00,-158.854E-03,+1.472707E+00
-1.360000E+00,-73.427E-03,+1.472707E+00
-1.355000E+00,+147.678E-03,+1.472707E+00
-1.350000E+00,-23.176E-03,+1.412406E+00
-1.345000E+00,-91.015E-03,+1.344567E+00
-1.340000E+00,-229.206E-03,+1.432506E+00
-1.335000E+00,-284.482E-03,+1.561903E+00
-1.330000E+00,-271.920E-03,+1.593310E+00
-1.325000E+00,+74.814E-03,+1.613411E+00
-1.320000E+00,+484.362E-03,+1.556878E+00
-1.315000E+00,-372.422E-03,+1.585773E+00
-1.310000E+00,-63.377E-03,+1.512908E+00
-1.305000E+00,+165.266E-03,+1.516677E+00
-1.300000E+00,-143.779E-03,+1.512908E+00
-1.295000E+00,-211.618E-03,+1.505371E+00
-1.290000E+00,+248.181E-03,+1.392305E+00
-1.285000E+00,-43.276E-03,+1.372205E+00
-1.280000E+00,-309.608E-03,+1.374717E+00
-1.275000E+00,-171.417E-03,+1.452607E+00
-1.270000E+00,+12.000E-03,+1.452607E+00
-1.265000E+00,-171.417E-03,+1.432506E+00
-1.260000E+00,-70.915E-03,+1.452607E+00
-1.255000E+00,+115.015E-03,+1.472707E+00
-1.250000E+00,-143.779E-03,+1.511652E+00
-1.245000E+00,-211.618E-03,+1.521702E+00
-1.240000E+00,+92.402E-03,+1.531753E+00
-1.235000E+00,+52.201E-03,+1.481501E+00
-1.230000E+00,-224.181E-03,+1.472707E+00
-1.225000E+00,+52.201E-03,+1.485270E+00
-1.220000E+00,+54.714E-03,+1.475220E+00
-1.215000E+00,-189.005E-03,+1.472707E+00
-1.210000E+00,-151.317E-03,+1.511652E+00
-1.205000E+00,-636.241E-03,+1.783009E+00
-1.200000E+00,+165.266E-03,+1.713913E+00
-1.195000E+00,+1.142653E+00,+1.010396E+00
-1.190000E+00,-1.480462E+00,+1.630999E+00
-1.185000E+00,-15.638E-03,+1.530496E+00
-1.180000E+00,+308.482E-03,+1.428738E+00
-1.175000E+00,+655.216E-03,+1.271702E+00
-1.170000E+00,-972.925E-03,+1.711401E+00
-1.165000E+00,-520.663E-03,+1.746577E+00
-1.160000E+00,+1.358734E+00,+847.079E-03
-1.155000E+00,-1.462874E+00,+1.834516E+00
-1.150000E+00,+381.347E-03,+1.452607E+00
-1.145000E+00,-349.809E-03,+1.570697E+00
-1.140000E+00,+449.186E-03,+1.492808E+00
-1.135000E+00,-199.055E-03,+1.501602E+00
-1.130000E+00,-191.518E-03,+1.475220E+00
-1.125000E+00,+107.477E-03,+1.452607E+00
-1.120000E+00,+167.779E-03,+1.472707E+00
-1.115000E+00,-229.206E-03,+1.492808E+00
-1.110000E+00,-189.005E-03,+1.512908E+00
-1.105000E+00,-38.251E-03,+1.605873E+00
-1.100000E+00,-178.955E-03,+1.551853E+00
-1.095000E+00,-390.010E-03,+1.602104E+00
-1.090000E+00,+115.015E-03,+1.618436E+00
-1.085000E+00,-839.759E-03,+1.711401E+00
-1.080000E+00,+135.116E-03,+1.250346E+00
-1.075000E+00,+293.407E-03,+1.427481E+00
-1.070000E+00,+481.849E-03,+1.256627E+00
-1.065000E+00,-1.113628E+00,+1.396074E+00
-1.060000E+00,-1.309608E+00,+1.796828E+00
-1.055000E+00,-158.854E-03,+1.947582E+00
-1.050000E+00,+1.700442E+00,+1.015421E+00
-1.045000E+00,-1.905085E+00,+1.668687E+00
-1.040000E+00,+253.206E-03,+1.612155E+00
-1.035000E+00,-186.492E-03,+1.760396E+00
-1.030000E+00,+62.251E-03,+1.267934E+00
-1.025000E+00,-1.658854E+00,+2.173712E+00
-1.020000E+00,+1.268281E+00,+1.521702E+00
-1.015000E+00,+358.734E-03,+933.763E-03
-1.010000E+00,-1.442774E+00,+1.573210E+00
-1.005000E+00,-15.638E-03,+1.593310E+00
-1.000000E+00,-68.402E-03,+1.575722E+00
-995.000E-03,-68.402E-03,+1.553109E+00
-990.000E-03,+248.181E-03,+1.531753E+00
-985.000E-03,-83.477E-03,+1.553109E+00
-980.000E-03,-191.518E-03,+1.533009E+00
-975.000E-03,+132.603E-03,+1.485270E+00
-970.000E-03,+54.714E-03,+1.492808E+00
-965.000E-03,-364.884E-03,+1.553109E+00
-960.000E-03,+47.176E-03,+1.512908E+00
-955.000E-03,+84.864E-03,+1.533009E+00
-950.000E-03,-63.377E-03,+1.452607E+00
-945.000E-03,-148.804E-03,+1.412406E+00
-940.000E-03,+47.176E-03,+1.412406E+00
-935.000E-03,-123.678E-03,+1.432506E+00
-930.000E-03,-312.121E-03,+1.452607E+00
-925.000E-03,+67.276E-03,+1.452607E+00
-920.000E-03,+92.402E-03,+1.435019E+00
-915.000E-03,-349.809E-03,+1.501602E+00
-910.000E-03,-70.915E-03,+1.512908E+00
-905.000E-03,+147.678E-03,+1.545572E+00
-900.000E-03,-181.467E-03,+1.551853E+00
-895.000E-03,-1.156342E+00,+2.073210E+00
-890.000E-03,+2.147678E+00,+946.325E-03
-885.000E-03,-1.646291E+00,+1.409893E+00
-880.000E-03,-656.342E-03,+1.638537E+00
-875.000E-03,+740.643E-03,+1.200094E+00
-870.000E-03,+82.352E-03,+1.535521E+00
-865.000E-03,-314.633E-03,+1.726476E+00
-860.000E-03,+408.985E-03,+1.535521E+00
-855.000E-03,+253.206E-03,+1.512908E+00
-850.000E-03,-339.759E-03,+1.550597E+00
-845.000E-03,+92.402E-03,+1.392305E+00
-840.000E-03,+685.367E-03,+1.154868E+00
-835.000E-03,-895.035E-03,+1.605873E+00
-830.000E-03,+79.839E-03,+1.397331E+00
-825.000E-03,-216.643E-03,+1.389793E+00
-820.000E-03,-75.940E-03,+1.597079E+00
-815.000E-03,-221.668E-03,+1.561903E+00
-810.000E-03,+87.377E-03,+1.533009E+00
-805.000E-03,+120.040E-03,+1.501602E+00
-800.000E-03,-183.980E-03,+1.512908E+00
-795.000E-03,-50.814E-03,+1.485270E+00
-790.000E-03,-153.829E-03,+1.573210E+00
-785.000E-03,+52.201E-03,+1.492808E+00
-780.000E-03,-312.121E-03,+1.492808E+00
-775.000E-03,-3.075E-03,+1.492808E+00
-770.000E-03,+14.513E-03,+1.476476E+00
-765.000E-03,+92.402E-03,+1.324466E+00
-760.000E-03,-141.266E-03,+1.407381E+00
-755.000E-03,+79.839E-03,+1.536778E+00
-750.000E-03,+665.266E-03,+1.070697E+00
-745.000E-03,-1.538251E+00,+2.033009E+00
-740.000E-03,+19.538E-03,+1.734014E+00
-735.000E-03,+853.709E-03,+1.320697E+00
-730.000E-03,+1.974312E+00,+628.486E-03
-725.000E-03,-1.244281E+00,+2.055622E+00
-720.000E-03,+2.177829E+00,+1.254114E+00
-715.000E-03,+790.894E-03,+875.974E-03
-710.000E-03,-1.274432E+00,+1.722707E+00
-705.000E-03,-377.447E-03,+1.573210E+00
-700.000E-03,+1.140141E+00,+1.291803E+00
-695.000E-03,-1.078452E+00,+1.539290E+00
-690.000E-03,+368.784E-03,+1.535521E+00
-685.000E-03,+1.097427E+00,+1.103361E+00
-680.000E-03,-1.000563E+00,+1.174969E+00
-675.000E-03,-1.877447E+00,+1.746577E+00
-670.000E-03,+534.613E-03,+1.632255E+00
-665.000E-03,+115.015E-03,+1.576979E+00
-660.000E-03,+205.467E-03,+1.472707E+00
-655.000E-03,+84.864E-03,+1.521702E+00
-650.000E-03,-183.980E-03,+1.531753E+00
-645.000E-03,-28.201E-03,+1.421200E+00
-640.000E-03,-138.754E-03,+1.468939E+00
-635.000E-03,+27.075E-03,+1.485270E+00
-630.000E-03,-465.387E-03,+1.551853E+00
-625.000E-03,+177.829E-03,+1.421200E+00
-620.000E-03,-339.759E-03,+1.590798E+00
-615.000E-03,-503.075E-03,+1.651099E+00
-610.000E-03,+120.040E-03,+1.676225E+00
-605.000E-03,+831.095E-03,+1.344567E+00
-600.000E-03,-465.387E-03,+1.511652E+00
-595.000E-03,-364.884E-03,+1.481501E+00
-590.000E-03,+263.256E-03,+1.409893E+00
-585.000E-03,-10.613E-03,+1.512908E+00
-580.000E-03,-73.427E-03,+1.492808E+00
-575.000E-03,+1.218030E+00,+1.188788E+00
-570.000E-03,+532.100E-03,+1.442557E+00
-565.000E-03,-616.141E-03,+1.671200E+00
-560.000E-03,-1.058352E+00,+1.688788E+00
-555.000E-03,+687.879E-03,+1.576979E+00
-550.000E-03,+582.352E-03,+1.034265E+00
-545.000E-03,-2.249307E+00,+2.033009E+00
-540.000E-03,+969.286E-03,+1.476476E+00
-535.000E-03,-131.216E-03,+1.445069E+00
-530.000E-03,-553.327E-03,+1.633511E+00
-525.000E-03,-390.010E-03,+1.637280E+00
-520.000E-03,-70.915E-03,+1.446325E+00
-515.000E-03,-153.829E-03,+1.409893E+00
-510.000E-03,+82.352E-03,+1.472707E+00
-505.000E-03,-199.055E-03,+1.570697E+00
-500.000E-03,+522.050E-03,+1.436275E+00
-495.000E-03,+32.101E-03,+1.266677E+00
-490.000E-03,+167.779E-03,+1.370949E+00
-485.000E-03,-927.698E-03,+1.903612E+00
-480.000E-03,-128.704E-03,+1.667431E+00
-475.000E-03,+597.427E-03,+1.637280E+00
-470.000E-03,+213.005E-03,+1.555622E+00
-465.000E-03,+1.471799E+00,+731.501E-03
-460.000E-03,-3.608603E+00,+1.909893E+00
-455.000E-03,-435.236E-03,+1.814416E+00
-450.000E-03,-523.176E-03,+1.628486E+00
-445.000E-03,-50.814E-03,+1.693813E+00
-440.000E-03,+376.322E-03,+1.573210E+00
-435.000E-03,+481.849E-03,+1.352104E+00
-430.000E-03,-543.276E-03,+1.472707E+00
-425.000E-03,-28.201E-03,+1.561903E+00
-420.000E-03,-216.643E-03,+1.571954E+00
-415.000E-03,-342.271E-03,+1.501602E+00
-410.000E-03,-344.784E-03,+1.491552E+00
-405.000E-03,+165.266E-03,+1.545572E+00
-400.000E-03,+579.839E-03,+1.191300E+00
-395.000E-03,-819.658E-03,+1.617180E+00
-390.000E-03,+14.513E-03,+1.573210E+00
-385.000E-03,+57.226E-03,+1.553109E+00
-380.000E-03,-68.402E-03,+1.495320E+00
-375.000E-03,-10.613E-03,+1.573210E+00
-370.000E-03,+52.201E-03,+1.535521E+00
-365.000E-03,-148.804E-03,+1.492808E+00
-360.000E-03,-111.116E-03,+1.512908E+00
-355.000E-03,+218.030E-03,+1.432506E+00
-350.000E-03,-108.603E-03,+1.374717E+00
-345.000E-03,-573.427E-03,+1.573210E+00
-340.000E-03,+94.915E-03,+1.511652E+00
-335.000E-03,+22.050E-03,+1.485270E+00
-330.000E-03,-183.980E-03,+1.452607E+00
-325.000E-03,-309.608E-03,+1.642305E+00
-320.000E-03,+577.327E-03,+1.472707E+00
-315.000E-03,+49.688E-03,+1.277984E+00
-310.000E-03,+155.216E-03,+1.595823E+00
-305.000E-03,+378.834E-03,+1.441300E+00
-300.000E-03,-183.980E-03,+1.452607E+00
-295.000E-03,-309.608E-03,+1.521702E+00
-290.000E-03,+127.578E-03,+1.533009E+00
-285.000E-03,+39.638E-03,+1.424969E+00
-280.000E-03,-1.435236E+00,+1.713913E+00
-275.000E-03,+396.422E-03,+1.492808E+00
-270.000E-03,+172.804E-03,+1.533009E+00
-265.000E-03,-302.070E-03,+1.541803E+00
-260.000E-03,-269.407E-03,+1.653612E+00
-255.000E-03,+602.452E-03,+1.344567E+00
-250.000E-03,-1.694030E+00,+1.774215E+00
-245.000E-03,+92.402E-03,+1.512908E+00
-240.000E-03,+175.317E-03,+1.491552E+00
-235.000E-03,-91.015E-03,+1.492808E+00
-230.000E-03,-312.121E-03,+1.512908E+00
-225.000E-03,+12.000E-03,+1.512908E+00
-220.000E-03,+14.513E-03,+1.553109E+00
-215.000E-03,-274.432E-03,+1.565672E+00
-210.000E-03,-70.915E-03,+1.632255E+00
-205.000E-03,+373.809E-03,+1.545572E+00
-200.000E-03,+52.201E-03,+1.432506E+00
-195.000E-03,-131.216E-03,+1.380999E+00
-190.000E-03,+12.000E-03,+1.374717E+00
-185.000E-03,-28.201E-03,+1.384768E+00
-180.000E-03,-553.327E-03,+1.535521E+00
-175.000E-03,+187.879E-03,+1.512908E+00
-170.000E-03,+52.201E-03,+1.533009E+00
-165.000E-03,-189.005E-03,+1.553109E+00
-160.000E-03,+449.186E-03,+1.355873E+00
-155.000E-03,+67.276E-03,+1.401099E+00
-150.000E-03,-915.136E-03,+1.752858E+00
-145.000E-03,+223.055E-03,+1.585773E+00
-140.000E-03,+730.593E-03,+1.394818E+00
-135.000E-03,-68.402E-03,+1.472707E+00
-130.000E-03,-304.583E-03,+1.491552E+00
-125.000E-03,+92.402E-03,+1.465170E+00
-120.000E-03,-344.784E-03,+1.595823E+00
-115.000E-03,-148.804E-03,+1.573210E+00
-110.000E-03,+165.266E-03,+1.512908E+00
-105.000E-03,+195.417E-03,+1.432506E+00
-100.000E-03,-545.789E-03,+1.495320E+00
-95.000E-03,-194.030E-03,+1.505371E+00
-90.000E-03,+125.065E-03,+1.531753E+00
-85.000E-03,-38.251E-03,+1.533009E+00
-80.000E-03,-264.382E-03,+1.553109E+00
-75.000E-03,+378.834E-03,+1.461401E+00
-70.000E-03,-224.181E-03,+1.673712E+00
-65.000E-03,-181.467E-03,+1.722707E+00
-60.000E-03,+672.804E-03,+1.779240E+00
-55.000E-03,+3.308482E+00,+1.030496E+00
-50.000E-03,-1.189005E+00,+1.311903E+00
-45.000E-03,-3.412623E+00,+1.902356E+00
-40.000E-03,+1.192905E+00,+1.540547E+00
-35.000E-03,+687.879E-03,+1.191300E+00
-30.000E-03,+213.005E-03,+950.094E-03
-25.000E-03,-591.015E-03,+1.171200E+00
-20.000E-03,-515.638E-03,+1.372205E+00
-15.000E-03,-761.869E-03,+1.697582E+00
-10.000E-03,+496.925E-03,+1.472707E+00
-5.000E-03,-857.347E-03,+1.715170E+00
-0.0E+00,+9.487E-03,+1.673712E+00
+5.000E-03,+67.276E-03,+1.754114E+00
+10.000E-03,+584.864E-03,+1.642305E+00
+15.000E-03,+816.020E-03,+1.231501E+00
+20.000E-03,-2.797045E+00,+1.858386E+00
+25.000E-03,+785.869E-03,+1.726476E+00
+30.000E-03,-60.864E-03,+1.630999E+00
+35.000E-03,+356.221E-03,+1.432506E+00
+40.000E-03,-70.915E-03,+1.491552E+00
+45.000E-03,-141.266E-03,+1.461401E+00
+50.000E-03,-776.945E-03,+1.648587E+00
+55.000E-03,+333.608E-03,+1.472707E+00
+60.000E-03,+285.869E-03,+1.435019E+00
+65.000E-03,-221.668E-03,+1.461401E+00
+70.000E-03,-465.387E-03,+1.491552E+00
+75.000E-03,+34.613E-03,+1.441300E+00
+80.000E-03,-73.427E-03,+1.533009E+00
+85.000E-03,-309.608E-03,+1.561903E+00
+90.000E-03,+47.176E-03,+1.573210E+00
+95.000E-03,+275.819E-03,+1.525471E+00
+100.000E-03,-20.663E-03,+1.432506E+00
+105.000E-03,-349.809E-03,+1.472707E+00
+110.000E-03,+125.065E-03,+1.472707E+00
+115.000E-03,-101.065E-03,+1.441300E+00
+120.000E-03,-234.231E-03,+1.515421E+00
+125.000E-03,+293.407E-03,+1.492808E+00
+130.000E-03,+47.176E-03,+1.515421E+00
+135.000E-03,-274.432E-03,+1.492808E+00
+140.000E-03,-143.779E-03,+1.491552E+00
+145.000E-03,-234.231E-03,+1.693813E+00
+150.000E-03,+295.920E-03,+1.492808E+00
+155.000E-03,-101.065E-03,+1.472707E+00
+160.000E-03,+255.719E-03,+1.392305E+00
+165.000E-03,+34.613E-03,+1.392305E+00
+170.000E-03,-872.422E-03,+1.732758E+00
+175.000E-03,+494.412E-03,+1.553109E+00
+180.000E-03,+218.030E-03,+1.491552E+00
+185.000E-03,-108.603E-03,+1.432506E+00
+190.000E-03,-143.779E-03,+1.409893E+00
+195.000E-03,-395.035E-03,+1.573210E+00
+200.000E-03,-271.920E-03,+1.592054E+00
+205.000E-03,+253.206E-03,+1.485270E+00
+210.000E-03,+92.402E-03,+1.553109E+00
+215.000E-03,+132.603E-03,+1.445069E+00
+220.000E-03,-377.447E-03,+1.431250E+00
+225.000E-03,-606.090E-03,+1.702607E+00
+230.000E-03,+135.116E-03,+1.595823E+00
+235.000E-03,-50.814E-03,+1.597079E+00
+240.000E-03,-20.663E-03,+1.551853E+00
+245.000E-03,+396.422E-03,+1.412406E+00
+250.000E-03,-269.407E-03,+1.432506E+00
+255.000E-03,-292.020E-03,+1.452607E+00
+260.000E-03,+54.714E-03,+1.412406E+00
+265.000E-03,-148.804E-03,+1.485270E+00
+270.000E-03,-349.809E-03,+1.511652E+00
+275.000E-03,+102.452E-03,+1.545572E+00
+280.000E-03,-28.201E-03,+1.592054E+00
+285.000E-03,-123.678E-03,+1.553109E+00
+290.000E-03,+84.864E-03,+1.573210E+00
+295.000E-03,+172.804E-03,+1.553109E+00
+300.000E-03,-151.317E-03,+1.535521E+00
+305.000E-03,+6.975E-03,+1.452607E+00
+310.000E-03,-216.643E-03,+1.468939E+00
+315.000E-03,-68.402E-03,+1.472707E+00
+320.000E-03,-23.176E-03,+1.372205E+00
+325.000E-03,-171.417E-03,+1.501602E+00
+330.000E-03,-183.980E-03,+1.592054E+00
+335.000E-03,+12.000E-03,+1.492808E+00
+340.000E-03,+94.915E-03,+1.472707E+00
+345.000E-03,-68.402E-03,+1.573210E+00
+350.000E-03,-141.266E-03,+1.512908E+00
+355.000E-03,-38.251E-03,+1.657381E+00
+360.000E-03,+346.171E-03,+1.489039E+00
+365.000E-03,+1.617528E+00,+789.290E-03
+370.000E-03,-1.905085E+00,+1.718939E+00
+375.000E-03,+378.834E-03,+1.320697E+00
+380.000E-03,-957.849E-03,+2.015421E+00
+385.000E-03,+1.489387E+00,+1.200094E+00
+390.000E-03,-357.347E-03,+1.553109E+00
+395.000E-03,-2.269407E+00,+2.068185E+00
+400.000E-03,+1.001950E+00,+1.539290E+00
+405.000E-03,+451.698E-03,+1.108386E+00
+410.000E-03,-1.297045E+00,+1.610898E+00
+415.000E-03,+172.804E-03,+1.458888E+00
+420.000E-03,-2.822171E+00,+2.309391E+00
+425.000E-03,+1.893910E+00,+1.628486E+00
+430.000E-03,-236.744E-03,+1.526728E+00
+435.000E-03,+343.658E-03,+1.769190E+00
+440.000E-03,+1.104965E+00,+1.195069E+00
+445.000E-03,+107.477E-03,+1.059391E+00
+450.000E-03,-1.075940E+00,+1.310647E+00
+455.000E-03,-538.251E-03,+1.432506E+00
+460.000E-03,-111.116E-03,+1.492808E+00
+465.000E-03,-292.020E-03,+1.653612E+00
+470.000E-03,-108.603E-03,+1.653612E+00
+475.000E-03,+316.020E-03,+1.633511E+00
+480.000E-03,+408.985E-03,+1.492808E+00
+485.000E-03,-221.668E-03,+1.421200E+00
+490.000E-03,-229.206E-03,+1.511652E+00
+495.000E-03,+34.613E-03,+1.512908E+00
+500.000E-03,-23.176E-03,+1.392305E+00
+505.000E-03,-123.678E-03,+1.380999E+00
+510.000E-03,-229.206E-03,+1.571954E+00
+515.000E-03,-430.211E-03,+1.734014E+00
+520.000E-03,+207.980E-03,+1.593310E+00
+525.000E-03,+718.030E-03,+1.284265E+00
+530.000E-03,-302.070E-03,+1.372205E+00
+535.000E-03,-591.015E-03,+1.432506E+00
+540.000E-03,-35.739E-03,+1.475220E+00
+545.000E-03,+147.678E-03,+1.472707E+00
+550.000E-03,-143.779E-03,+1.491552E+00
+555.000E-03,-83.477E-03,+1.461401E+00
+560.000E-03,+52.201E-03,+1.531753E+00
+565.000E-03,-229.206E-03,+1.646074E+00
+570.000E-03,+82.352E-03,+1.553109E+00
+575.000E-03,+213.005E-03,+1.472707E+00
+580.000E-03,-68.402E-03,+1.492808E+00
+585.000E-03,-292.020E-03,+1.512908E+00
+590.000E-03,-68.402E-03,+1.511652E+00
+595.000E-03,+253.206E-03,+1.392305E+00
+600.000E-03,-108.603E-03,+1.431250E+00
+605.000E-03,-131.216E-03,+1.505371E+00
+610.000E-03,+135.116E-03,+1.495320E+00
+615.000E-03,-163.879E-03,+1.512908E+00
+620.000E-03,-151.317E-03,+1.475220E+00
+625.000E-03,+132.603E-03,+1.452607E+00
+630.000E-03,-60.864E-03,+1.432506E+00
+635.000E-03,-457.849E-03,+1.530496E+00
+640.000E-03,-33.226E-03,+1.593310E+00
+645.000E-03,+195.417E-03,+1.582004E+00
+650.000E-03,-70.915E-03,+1.593310E+00
+655.000E-03,-131.216E-03,+1.593310E+00
+660.000E-03,+207.980E-03,+1.553109E+00
+665.000E-03,-68.402E-03,+1.525471E+00
+670.000E-03,-191.518E-03,+1.495320E+00
+675.000E-03,+34.613E-03,+1.481501E+00
+680.000E-03,-33.226E-03,+1.515421E+00
+685.000E-03,-917.648E-03,+1.889793E+00
+690.000E-03,+1.542151E+00,+1.130999E+00
+695.000E-03,-78.452E-03,+1.068185E+00
+700.000E-03,-1.354834E+00,+1.451351E+00
+705.000E-03,-779.457E-03,+1.774215E+00
+710.000E-03,+946.673E-03,+1.602104E+00
+715.000E-03,+587.377E-03,+1.237783E+00
+720.000E-03,-839.759E-03,+1.656124E+00
+725.000E-03,+1.411497E+00,+1.186275E+00
+730.000E-03,-1.490513E+00,+1.646074E+00
+735.000E-03,-211.618E-03,+1.713913E+00
+740.000E-03,+1.084864E+00,+1.717682E+00
+745.000E-03,+1.446673E+00,+1.034265E+00
+750.000E-03,-1.128704E+00,+1.595823E+00
+755.000E-03,+39.638E-03,+1.329491E+00
+760.000E-03,-78.452E-03,+1.576979E+00
+765.000E-03,-284.482E-03,+1.653612E+00
+770.000E-03,-33.226E-03,+1.555622E+00
+775.000E-03,+213.005E-03,+1.472707E+00
+780.000E-03,-302.070E-03,+1.533009E+00
+785.000E-03,-10.613E-03,+1.452607E+00
+790.000E-03,-269.407E-03,+1.512908E+00
+795.000E-03,-407.598E-03,+1.418687E+00
+800.000E-03,-683.980E-03,+1.716426E+00
+805.000E-03,+205.467E-03,+1.512908E+00
+810.000E-03,+534.613E-03,+1.369692E+00
+815.000E-03,-96.040E-03,+1.456376E+00
+820.000E-03,+218.030E-03,+1.130999E+00
+825.000E-03,-1.118653E+00,+1.794315E+00
+830.000E-03,+295.920E-03,+1.612155E+00
+835.000E-03,-101.065E-03,+1.525471E+00
+840.000E-03,-181.467E-03,+1.389793E+00
+845.000E-03,-113.628E-03,+1.565672E+00
+850.000E-03,-143.779E-03,+1.533009E+00
+855.000E-03,-20.663E-03,+1.521702E+00
+860.000E-03,-493.025E-03,+1.673712E+00
+865.000E-03,-324.683E-03,+1.734014E+00
+870.000E-03,-153.829E-03,+1.834516E+00
+875.000E-03,+517.025E-03,+1.585773E+00
+880.000E-03,+650.191E-03,+1.656124E+00
+885.000E-03,+1.331095E+00,+838.285E-03
+890.000E-03,-1.734231E+00,+1.598336E+00
+895.000E-03,+62.251E-03,+1.404868E+00
+900.000E-03,-148.804E-03,+1.354617E+00
+905.000E-03,-211.618E-03,+1.392305E+00
+910.000E-03,+52.201E-03,+1.394818E+00
+915.000E-03,-101.065E-03,+1.392305E+00
+920.000E-03,-309.608E-03,+1.452607E+00
+925.000E-03,-43.276E-03,+1.553109E+00
+930.000E-03,-63.377E-03,+1.613411E+00
+935.000E-03,-251.819E-03,+1.706376E+00
+940.000E-03,-30.714E-03,+1.774215E+00
+945.000E-03,+735.618E-03,+1.496577E+00
+950.000E-03,+745.668E-03,+1.108386E+00
+955.000E-03,-234.231E-03,+1.352104E+00
+960.000E-03,-173.930E-03,+1.698838E+00
+965.000E-03,+602.452E-03,+1.264165E+00
+970.000E-03,-555.839E-03,+1.432506E+00
+975.000E-03,-68.402E-03,+1.445069E+00
+980.000E-03,-148.804E-03,+1.531753E+00
+985.000E-03,-108.603E-03,+1.512908E+00
+990.000E-03,+132.603E-03,+1.512908E+00
+995.000E-03,+67.276E-03,+1.666175E+00
+1.000000E+00,+338.633E-03,+1.394818E+00
+1.005000E+00,-390.010E-03,+1.533009E+00
+1.010000E+00,+127.578E-03,+1.512908E+00
+1.015000E+00,+52.201E-03,+1.424969E+00
+1.020000E+00,+12.000E-03,+1.251602E+00
+1.025000E+00,-251.819E-03,+1.372205E+00
+1.030000E+00,-344.784E-03,+1.455119E+00
+1.035000E+00,-550.814E-03,+1.633511E+00
+1.040000E+00,+162.754E-03,+1.632255E+00
+1.045000E+00,+557.226E-03,+1.565672E+00
+1.050000E+00,-18.151E-03,+1.683763E+00
+1.055000E+00,+733.106E-03,+1.007883E+00
+1.060000E+00,-1.568402E+00,+1.452607E+00
+1.065000E+00,+675.317E-03,+1.963913E+00
+1.070000E+00,+718.030E-03,+1.308135E+00
+1.075000E+00,-1.648804E+00,+2.119692E+00
+1.080000E+00,+2.936623E+00,+999.089E-03
+1.085000E+00,+695.417E-03,+628.486E-03
+1.090000E+00,-5.018151E+00,+2.702607E+00
+1.095000E+00,+2.594915E+00,+1.613411E+00
+1.100000E+00,+1.620040E+00,+854.617E-03
+1.105000E+00,-2.754332E+00,+2.007883E+00
+1.110000E+00,-63.377E-03,+2.012908E+00
+1.115000E+00,+2.836121E+00,+628.486E-03
+1.120000E+00,-1.422673E+00,+1.186275E+00
+1.125000E+00,+1.079839E+00,+1.737783E+00
+1.130000E+00,+1.403960E+00,+1.480245E+00
+1.135000E+00,+1.594915E+00,+858.386E-03
+1.140000E+00,-2.784482E+00,+2.260396E+00
+1.145000E+00,+1.042151E+00,+1.785521E+00
+1.150000E+00,-450.312E-03,+1.352104E+00
+1.155000E+00,-922.673E-03,+1.191300E+00
+1.160000E+00,-998.050E-03,+1.590798E+00
+1.165000E+00,-131.216E-03,+1.613411E+00
+1.170000E+00,+94.915E-03,+1.475220E+00
+1.175000E+00,+132.603E-03,+1.521702E+00
+1.180000E+00,+215.518E-03,+1.472707E+00
+1.185000E+00,-216.643E-03,+1.490295E+00
+1.190000E+00,+145.166E-03,+1.619692E+00
+1.195000E+00,+637.628E-03,+1.174969E+00
+1.200000E+00,-2.508100E+00,+2.148587E+00
+1.205000E+00,+999.437E-03,+1.424969E+00
+1.210000E+00,-616.141E-03,+1.649843E+00
+1.215000E+00,+308.482E-03,+1.597079E+00
+1.220000E+00,-126.191E-03,+1.466426E+00
+1.225000E+00,+228.080E-03,+1.485270E+00
+1.230000E+00,+14.513E-03,+1.392305E+00
+1.235000E+00,-877.447E-03,+1.731501E+00
+1.240000E+00,+1.378834E+00,+1.171200E+00
+1.245000E+00,+2.006975E+00,+799.341E-03
+1.250000E+00,-4.065889E+00,+2.435019E+00
+1.255000E+00,+637.628E-03,+1.706376E+00
+1.260000E+00,+743.156E-03,+1.495320E+00
+1.265000E+00,-314.633E-03,+1.485270E+00
+1.270000E+00,-148.804E-03,+1.352104E+00
+1.275000E+00,-284.482E-03,+1.553109E+00
+1.280000E+00,+599.940E-03,+1.477733E+00
+1.285000E+00,+4.462E-03,+1.255371E+00
+1.290000E+00,-1.003075E+00,+1.702607E+00
+1.295000E+00,+225.568E-03,+1.525471E+00
+1.300000E+00,+12.000E-03,+1.632255E+00
+1.305000E+00,+213.005E-03,+1.605873E+00
+1.310000E+00,+494.412E-03,+1.456376E+00
+1.315000E+00,-163.879E-03,+1.472707E+00
+1.320000E+00,-465.387E-03,+1.550597E+00
+1.325000E+00,-292.020E-03,+1.622205E+00
+1.330000E+00,+162.754E-03,+1.615923E+00
+1.335000E+00,+333.608E-03,+1.304366E+00
+1.340000E+00,-598.553E-03,+1.512908E+00
+1.345000E+00,+172.804E-03,+1.264165E+00
+1.350000E+00,-2.812121E+00,+1.928738E+00
+1.355000E+00,+866.271E-03,+1.318185E+00
+1.360000E+00,+469.286E-03,+1.641049E+00
+1.365000E+00,+539.638E-03,+1.372205E+00
+1.370000E+00,-505.588E-03,+1.569441E+00
+1.375000E+00,-440.261E-03,+1.806878E+00
+1.380000E+00,+680.342E-03,+1.367180E+00
+1.385000E+00,-216.643E-03,+1.766677E+00
+1.390000E+00,+710.492E-03,+1.489039E+00
+1.395000E+00,+1.346171E+00,+927.481E-03
+1.400000E+00,-751.819E-03,+1.250346E+00
+1.405000E+00,-377.447E-03,+1.240295E+00
+1.410000E+00,-437.749E-03,+1.615923E+00
+1.415000E+00,-141.266E-03,+1.533009E+00
+1.420000E+00,-8.101E-03,+1.369692E+00
+1.425000E+00,+343.658E-03,+1.576979E+00
+1.430000E+00,+353.709E-03,+1.306878E+00
+1.435000E+00,+74.814E-03,+1.536778E+00
+1.440000E+00,+52.201E-03,+1.531753E+00
+1.445000E+00,+218.030E-03,+1.501602E+00
+1.450000E+00,-221.668E-03,+1.531753E+00
+1.455000E+00,-364.884E-03,+1.573210E+00
+1.460000E+00,-214.131E-03,+1.570697E+00
+1.465000E+00,-3.075E-03,+1.541803E+00
+1.470000E+00,+165.266E-03,+1.455119E+00
+1.475000E+00,+147.678E-03,+1.432506E+00
+1.480000E+00,-103.578E-03,+1.451351E+00
+1.485000E+00,-766.894E-03,+1.786778E+00
+1.490000E+00,+891.397E-03,+1.354617E+00
+1.495000E+00,-55.839E-03,+1.573210E+00
+1.500000E+00,+107.477E-03,+1.349592E+00
+1.505000E+00,+235.618E-03,+1.372205E+00
+1.510000E+00,-221.668E-03,+1.571954E+00
+1.515000E+00,+316.020E-03,+1.335773E+00
+1.520000E+00,-729.206E-03,+1.387280E+00
+1.525000E+00,-2.173930E+00,+1.852104E+00
+1.530000E+00,-101.065E-03,+1.551853E+00
+1.535000E+00,+120.040E-03,+1.467682E+00
+1.540000E+00,-108.603E-03,+1.531753E+00
+1.545000E+00,+213.005E-03,+1.472707E+00
+1.550000E+00,-1.018151E+00,+1.810647E+00
+1.555000E+00,+1.702955E+00,+1.025471E+00
+1.560000E+00,-490.513E-03,+1.698838E+00
+1.565000E+00,-583.477E-03,+1.662406E+00
+1.570000E+00,+333.608E-03,+1.251602E+00
+1.575000E+00,-2.990513E+00,+1.968939E+00
+1.580000E+00,+697.930E-03,+1.617180E+00
+1.585000E+00,+155.216E-03,+1.505371E+00
+1.590000E+00,+175.317E-03,+1.452607E+00
+1.595000E+00,+52.201E-03,+1.472707E+00
+1.600000E+00,-224.181E-03,+1.472707E+00
+1.605000E+00,-194.030E-03,+1.481501E+00
+1.610000E+00,+82.352E-03,+1.475220E+00
+1.615000E+00,+34.613E-03,+1.424969E+00
+1.620000E+00,-349.809E-03,+1.495320E+00
+1.625000E+00,+92.402E-03,+1.472707E+00
+1.630000E+00,-20.663E-03,+1.472707E+00
+1.635000E+00,-284.482E-03,+1.472707E+00
+1.640000E+00,+12.000E-03,+1.492808E+00
+1.645000E+00,+218.030E-03,+1.432506E+00
+1.650000E+00,-229.206E-03,+1.472707E+00
+1.655000E+00,-136.241E-03,+1.512908E+00
+1.660000E+00,+135.116E-03,+1.533009E+00
+1.665000E+00,-3.075E-03,+1.501602E+00
+1.670000E+00,-68.402E-03,+1.435019E+00
+1.675000E+00,-68.402E-03,+1.485270E+00
+1.680000E+00,-183.980E-03,+1.492808E+00
+1.685000E+00,-251.819E-03,+1.472707E+00
+1.690000E+00,+12.000E-03,+1.492808E+00
+1.695000E+00,+213.005E-03,+1.424969E+00
+1.700000E+00,-141.266E-03,+1.391049E+00
+1.705000E+00,-779.457E-03,+1.693813E+00
+1.710000E+00,+172.804E-03,+1.673712E+00
+1.715000E+00,+275.819E-03,+1.585773E+00
+1.720000E+00,+135.116E-03,+1.451351E+00
+1.725000E+00,-83.477E-03,+1.441300E+00
+1.730000E+00,-28.201E-03,+1.435019E+00
+1.735000E+00,-591.015E-03,+1.533009E+00
+1.740000E+00,+205.467E-03,+1.435019E+00
+1.745000E+00,+268.281E-03,+1.352104E+00
+1.750000E+00,-264.382E-03,+1.352104E+00
+1.755000E+00,-269.407E-03,+1.360898E+00
+1.760000E+00,+44.663E-03,+1.455119E+00
+1.765000E+00,-204.080E-03,+1.521702E+00
+1.770000E+00,-234.231E-03,+1.555622E+00
+1.775000E+00,+115.015E-03,+1.602104E+00
+1.780000E+00,+132.603E-03,+1.633511E+00
+1.785000E+00,+1.109990E+00,+1.179994E+00
+1.790000E+00,-1.118653E+00,+1.794315E+00
+1.795000E+00,+1.004462E+00,+1.235270E+00
+1.800000E+00,-1.518151E+00,+1.972707E+00
+1.805000E+00,+1.228080E+00,+1.536778E+00
+1.810000E+00,+92.402E-03,+1.452607E+00
+1.815000E+00,-1.606090E+00,+1.642305E+00
+1.820000E+00,+1.240643E+00,+978.989E-03
+1.825000E+00,-2.967899E+00,+2.242808E+00
+1.830000E+00,+1.343658E+00,+1.435019E+00
+1.835000E+00,-60.864E-03,+1.352104E+00
+1.840000E+00,+1.137628E+00,+872.205E-03
+1.845000E+00,-470.412E-03,+967.682E-03
+1.850000E+00,-1.113628E+00,+1.370949E+00
+1.855000E+00,-274.432E-03,+1.642305E+00
+1.860000E+00,+489.387E-03,+1.575722E+00
+1.865000E+00,-292.020E-03,+1.617180E+00
+1.870000E+00,+328.583E-03,+1.412406E+00
+1.875000E+00,-354.834E-03,+1.726476E+00
+1.880000E+00,+285.869E-03,+1.636024E+00
+1.885000E+00,-520.663E-03,+1.659893E+00
+1.890000E+00,+207.980E-03,+1.575722E+00
+1.895000E+00,-20.663E-03,+1.585773E+00
+1.900000E+00,-96.040E-03,+1.492808E+00
+1.905000E+00,-60.864E-03,+1.421200E+00
+1.910000E+00,+182.854E-03,+1.446325E+00
+1.915000E+00,-148.804E-03,+1.492808E+00
+1.920000E+00,-73.427E-03,+1.452607E+00
+1.925000E+00,+67.276E-03,+1.452607E+00
+1.930000E+00,-63.377E-03,+1.472707E+00
+1.935000E+00,-309.608E-03,+1.492808E+00
+1.940000E+00,+47.176E-03,+1.495320E+00
+1.945000E+00,+137.628E-03,+1.492808E+00
+1.950000E+00,+137.628E-03,+1.311903E+00
+1.955000E+00,-412.623E-03,+1.472707E+00
+1.960000E+00,-68.402E-03,+1.555622E+00
+1.965000E+00,-10.613E-03,+1.553109E+00
+1.970000E+00,-28.201E-03,+1.492808E+00
+1.975000E+00,+356.221E-03,+1.352104E+00
+1.980000E+00,-103.578E-03,+1.352104E+00
+1.985000E+00,-726.693E-03,+1.533009E+00
+1.990000E+00,-113.628E-03,+1.632255E+00
+1.995000E+00,+366.271E-03,+1.553109E+00
+2.000000E+00,-151.317E-03,+1.615923E+00
+2.005000E+00,-10.613E-03,+1.613411E+00
+2.010000E+00,+414.010E-03,+1.533009E+00
+2.015000E+00,+34.613E-03,+1.476476E+00
+2.020000E+00,-181.467E-03,+1.412406E+00
+2.025000E+00,-204.080E-03,+1.501602E+00
+2.030000E+00,+167.779E-03,+1.375974E+00
+2.035000E+00,-269.407E-03,+1.332004E+00
+2.040000E+00,-141.266E-03,+1.332004E+00
+2.045000E+00,-83.477E-03,+1.364667E+00
+2.050000E+00,-339.759E-03,+1.330748E+00
+2.055000E+00,-658.854E-03,+1.593310E+00
+2.060000E+00,+218.030E-03,+1.575722E+00
+2.065000E+00,-33.226E-03,+1.625974E+00
+2.070000E+00,+52.201E-03,+1.533009E+00
+2.075000E+00,+333.608E-03,+1.432506E+00
+2.080000E+00,-101.065E-03,+1.451351E+00
+2.085000E+00,-503.075E-03,+1.637280E+00
+2.090000E+00,+92.402E-03,+1.593310E+00
+2.095000E+00,+107.477E-03,+1.677481E+00
+2.100000E+00,+333.608E-03,+1.394818E+00
+2.105000E+00,-131.216E-03,+1.412406E+00
+2.110000E+00,+293.407E-03,+1.332004E+00
+2.115000E+00,-470.412E-03,+1.465170E+00
+2.120000E+00,-312.121E-03,+1.511652E+00
+2.125000E+00,+388.884E-03,+1.392305E+00
+2.130000E+00,-60.864E-03,+1.372205E+00
+2.135000E+00,-475.437E-03,+1.565672E+00
+2.140000E+00,-20.663E-03,+1.511652E+00
+2.145000E+00,+172.804E-03,+1.533009E+00
+2.150000E+00,-63.377E-03,+1.515421E+00
+2.155000E+00,-68.402E-03,+1.573210E+00
+2.160000E+00,+408.985E-03,+1.452607E+00
+2.165000E+00,-181.467E-03,+1.461401E+00
+2.170000E+00,-191.518E-03,+1.472707E+00
+2.175000E+00,+67.276E-03,+1.512908E+00
+2.180000E+00,+14.513E-03,+1.452607E+00
+2.185000E+00,-309.608E-03,+1.465170E+00
+2.190000E+00,+132.603E-03,+1.392305E+00
+2.195000E+00,-141.266E-03,+1.441300E+00
+2.200000E+00,-312.121E-03,+1.555622E+00
+2.205000E+00,+172.804E-03,+1.492808E+00
+2.210000E+00,+59.739E-03,+1.515421E+00
+2.215000E+00,+52.201E-03,+1.445069E+00
+2.220000E+00,-309.608E-03,+1.471451E+00
+2.225000E+00,+245.668E-03,+1.421200E+00
+2.230000E+00,-68.402E-03,+1.432506E+00
+2.235000E+00,-395.035E-03,+1.481501E+00
+2.240000E+00,+47.176E-03,+1.472707E+00
+2.245000E+00,+74.814E-03,+1.461401E+00
+2.250000E+00,-143.779E-03,+1.452607E+00
+2.255000E+00,-20.663E-03,+1.432506E+00
+2.260000E+00,+47.176E-03,+1.472707E+00
+2.265000E+00,-189.005E-03,+1.525471E+00
+2.270000E+00,-191.518E-03,+1.553109E+00
+2.275000E+00,+195.417E-03,+1.553109E+00
+2.280000E+00,+14.513E-03,+1.533009E+00
+2.285000E+00,-284.482E-03,+1.553109E+00
+2.290000E+00,+47.176E-03,+1.571954E+00
+2.295000E+00,+147.678E-03,+1.512908E+00
+2.300000E+00,-259.357E-03,+1.411150E+00
+2.305000E+00,-329.709E-03,+1.579491E+00
+2.310000E+00,-58.352E-03,+1.569441E+00
+2.315000E+00,+424.060E-03,+1.326979E+00
+2.320000E+00,-719.156E-03,+1.414918E+00
+2.325000E+00,-2.535739E+00,+1.977733E+00
+2.330000E+00,+831.095E-03,+1.862155E+00
+2.335000E+00,+486.874E-03,+1.617180E+00
+2.340000E+00,+589.889E-03,+1.249089E+00
+2.345000E+00,+1.331095E+00,+1.074466E+00
+2.350000E+00,-1.985487E+00,+1.688788E+00
+2.355000E+00,-917.648E-03,+1.923712E+00
+2.360000E+00,+1.092402E+00,+1.555622E+00
+2.365000E+00,+710.492E-03,+1.050597E+00
+2.370000E+00,-704.080E-03,+1.231501E+00
+2.375000E+00,-533.226E-03,+1.441300E+00
+2.380000E+00,-113.628E-03,+1.472707E+00
+2.385000E+00,-43.276E-03,+1.392305E+00
+2.390000E+00,+12.000E-03,+1.510396E+00
+2.395000E+00,+12.000E-03,+1.582004E+00
+2.400000E+00,-189.005E-03,+1.615923E+00
+2.405000E+00,+710.492E-03,+1.335773E+00
+2.410000E+00,-28.201E-03,+1.374717E+00
+2.415000E+00,-520.663E-03,+1.461401E+00
+2.420000E+00,-553.327E-03,+1.672456E+00
+2.425000E+00,+293.407E-03,+1.646074E+00
+2.430000E+00,+180.342E-03,+1.571954E+00
+2.435000E+00,-148.804E-03,+1.492808E+00
+2.440000E+00,+207.980E-03,+1.475220E+00
+2.445000E+00,+52.201E-03,+1.472707E+00
+2.450000E+00,-299.558E-03,+1.431250E+00
+2.455000E+00,-189.005E-03,+1.472707E+00
+2.460000E+00,+172.804E-03,+1.414918E+00
+2.465000E+00,-244.281E-03,+1.432506E+00
+2.470000E+00,-191.518E-03,+1.435019E+00
+2.475000E+00,+52.201E-03,+1.472707E+00
+2.480000E+00,-103.578E-03,+1.533009E+00
+2.485000E+00,-251.819E-03,+1.585773E+00
+2.490000E+00,+207.980E-03,+1.553109E+00
+2.495000E+00,+275.819E-03,+1.452607E+00
+2.500000E+00,-70.915E-03,+1.412406E+00
+2.505000E+00,-211.618E-03,+1.445069E+00
+2.510000E+00,+52.201E-03,+1.452607E+00
+2.515000E+00,-309.608E-03,+1.472707E+00
+2.520000E+00,-189.005E-03,+1.472707E+00
+2.525000E+00,+147.678E-03,+1.472707E+00
+2.530000E+00,-103.578E-03,+1.511652E+00
+2.535000E+00,-412.623E-03,+1.593310E+00
+2.540000E+00,+328.583E-03,+1.496577E+00
+2.545000E+00,-3.075E-03,+1.533009E+00
+2.550000E+00,-181.467E-03,+1.472707E+00
+2.555000E+00,-274.432E-03,+1.602104E+00
+2.560000E+00,+293.407E-03,+1.573210E+00
+2.565000E+00,-83.477E-03,+1.541803E+00
+2.570000E+00,-70.915E-03,+1.535521E+00
+2.575000E+00,+429.085E-03,+1.372205E+00
+2.580000E+00,+135.116E-03,+1.211401E+00
+2.585000E+00,-412.623E-03,+1.200094E+00
+2.590000E+00,-430.211E-03,+1.350848E+00
+2.595000E+00,-309.608E-03,+1.510396E+00
+2.600000E+00,-384.985E-03,+1.653612E+00
+2.605000E+00,+107.477E-03,+1.662406E+00
+2.610000E+00,+569.789E-03,+1.612155E+00
+2.615000E+00,-83.477E-03,+1.605873E+00
+2.620000E+00,-68.402E-03,+1.593310E+00
+2.625000E+00,+177.829E-03,+1.533009E+00
+2.630000E+00,-970.412E-03,+1.909893E+00
+2.635000E+00,+263.256E-03,+1.525471E+00
+2.640000E+00,+707.980E-03,+1.250346E+00
+2.645000E+00,-309.608E-03,+1.492808E+00
+2.650000E+00,-384.985E-03,+1.472707E+00
+2.655000E+00,-73.427E-03,+1.496577E+00
+2.660000E+00,+132.603E-03,+1.491552E+00
+2.665000E+00,-163.879E-03,+1.485270E+00
+2.670000E+00,-189.005E-03,+1.472707E+00
+2.675000E+00,+74.814E-03,+1.492808E+00
+2.680000E+00,-63.377E-03,+1.492808E+00
+2.685000E+00,-251.819E-03,+1.492808E+00
+2.690000E+00,+52.201E-03,+1.492808E+00
+2.695000E+00,+52.201E-03,+1.481501E+00
+2.700000E+00,-224.181E-03,+1.475220E+00
+2.705000E+00,-50.814E-03,+1.481501E+00
+2.710000E+00,+132.603E-03,+1.491552E+00
+2.715000E+00,-171.417E-03,+1.472707E+00
+2.720000E+00,-191.518E-03,+1.491552E+00
+2.725000E+00,+92.402E-03,+1.492808E+00
+2.730000E+00,-28.201E-03,+1.492808E+00
+2.735000E+00,-229.206E-03,+1.492808E+00
+2.740000E+00,+52.201E-03,+1.475220E+00
+2.745000E+00,+34.613E-03,+1.492808E+00
+2.750000E+00,-191.518E-03,+1.492808E+00
+2.755000E+00,-68.402E-03,+1.501602E+00
+2.760000E+00,+132.603E-03,+1.492808E+00
+2.765000E+00,-148.804E-03,+1.492808E+00
+2.770000E+00,-151.317E-03,+1.495320E+00
+2.775000E+00,+92.402E-03,+1.492808E+00
+2.780000E+00,-30.714E-03,+1.492808E+00
+2.785000E+00,-229.206E-03,+1.492808E+00
+2.790000E+00,+54.714E-03,+1.492808E+00
+2.795000E+00,+57.226E-03,+1.481501E+00
+2.800000E+00,-224.181E-03,+1.491552E+00
+2.805000E+00,-28.201E-03,+1.492808E+00
+2.810000E+00,+132.603E-03,+1.492808E+00
+2.815000E+00,-148.804E-03,+1.492808E+00
+2.820000E+00,-156.342E-03,+1.491552E+00
+2.825000E+00,+107.477E-03,+1.492808E+00
+2.830000E+00,-63.377E-03,+1.492808E+00
+2.835000E+00,-251.819E-03,+1.485270E+00
+2.840000E+00,+52.201E-03,+1.492808E+00
+2.845000E+00,+52.201E-03,+1.481501E+00
+2.850000E+00,-264.382E-03,+1.492808E+00
+2.855000E+00,-28.201E-03,+1.492808E+00
+2.860000E+00,+135.116E-03,+1.492808E+00
+2.865000E+00,-163.879E-03,+1.492808E+00
+2.870000E+00,-189.005E-03,+1.475220E+00
+2.875000E+00,+92.402E-03,+1.481501E+00
+2.880000E+00,-63.377E-03,+1.492808E+00
+2.885000E+00,-269.407E-03,+1.492808E+00
+2.890000E+00,+87.377E-03,+1.492808E+00
+2.895000E+00,+74.814E-03,+1.492808E+00
+2.900000E+00,-229.206E-03,+1.492808E+00
+2.905000E+00,-50.814E-03,+1.492808E+00
+2.910000E+00,+167.779E-03,+1.492808E+00
+2.915000E+00,-163.879E-03,+1.492808E+00
+2.920000E+00,-189.005E-03,+1.492808E+00
+2.925000E+00,+92.402E-03,+1.492808E+00
+2.930000E+00,-60.864E-03,+1.492808E+00
+2.935000E+00,-251.819E-03,+1.492808E+00
+2.940000E+00,+87.377E-03,+1.495320E+00
+2.945000E+00,+52.201E-03,+1.492808E+00
+2.950000E+00,-224.181E-03,+1.492808E+00
+2.955000E+00,-28.201E-03,+1.492808E+00
+2.960000E+00,+132.603E-03,+1.492808E+00
+2.965000E+00,-163.879E-03,+1.492808E+00
+2.970000E+00,-148.804E-03,+1.492808E+00
+2.975000E+00,+132.603E-03,+1.501602E+00
+2.980000E+00,-63.377E-03,+1.512908E+00
+2.985000E+00,-251.819E-03,+1.492808E+00
+2.990000E+00,+54.714E-03,+1.475220E+00
+2.995000E+00,+57.226E-03,+1.492808E+00
+3.000000E+00,-229.206E-03,+1.495320E+00
+3.005000E+00,-28.201E-03,+1.492808E+00
+3.010000E+00,+135.116E-03,+1.492808E+00
+3.015000E+00,-189.005E-03,+1.501602E+00
+3.020000E+00,-148.804E-03,+1.511652E+00
+3.025000E+00,+132.603E-03,+1.492808E+00
+3.030000E+00,-63.377E-03,+1.492808E+00
+3.035000E+00,-269.407E-03,+1.492808E+00
+3.040000E+00,+87.377E-03,+1.495320E+00
+3.045000E+00,+52.201E-03,+1.492808E+00
+3.050000E+00,-229.206E-03,+1.491552E+00
+3.055000E+00,-28.201E-03,+1.492808E+00
+3.060000E+00,+125.065E-03,+1.511652E+00
+3.065000E+00,-189.005E-03,+1.492808E+00
+3.070000E+00,-151.317E-03,+1.492808E+00
+3.075000E+00,+107.477E-03,+1.492808E+00
+3.080000E+00,-63.377E-03,+1.475220E+00
+3.085000E+00,-251.819E-03,+1.492808E+00
+3.090000E+00,+54.714E-03,+1.491552E+00
+3.095000E+00,+34.613E-03,+1.492808E+00
+3.100000E+00,-261.869E-03,+1.492808E+00
+3.105000E+00,-10.613E-03,+1.492808E+00
+3.110000E+00,+167.779E-03,+1.491552E+00
+3.115000E+00,-189.005E-03,+1.481501E+00
+3.120000E+00,-153.829E-03,+1.492808E+00
+3.125000E+00,+92.402E-03,+1.501602E+00
+3.130000E+00,-28.201E-03,+1.492808E+00
+3.135000E+00,-204.080E-03,+1.492808E+00
+3.140000E+00,+54.714E-03,+1.492808E+00
+3.145000E+00,+27.075E-03,+1.492808E+00
+3.150000E+00,-229.206E-03,+1.495320E+00
+3.155000E+00,-10.613E-03,+1.505371E+00
+3.160000E+00,+132.603E-03,+1.492808E+00
+3.165000E+00,-163.879E-03,+1.501602E+00
+3.170000E+00,-73.427E-03,+1.492808E+00
+3.175000E+00,+107.477E-03,+1.492808E+00
+3.180000E+00,-63.377E-03,+1.492808E+00
+3.185000E+00,-229.206E-03,+1.505371E+00
+3.190000E+00,+87.377E-03,+1.492808E+00
+3.195000E+00,+34.613E-03,+1.492808E+00
+3.200000E+00,-229.206E-03,+1.511652E+00
+3.205000E+00,-50.814E-03,+1.492808E+00
+3.210000E+00,+132.603E-03,+1.492808E+00
+3.215000E+00,-189.005E-03,+1.512908E+00
+3.220000E+00,-111.116E-03,+1.495320E+00
+3.225000E+00,+132.603E-03,+1.505371E+00
+3.230000E+00,-63.377E-03,+1.492808E+00
+3.235000E+00,-229.206E-03,+1.492808E+00
+3.240000E+00,+92.402E-03,+1.492808E+00
+3.245000E+00,+27.075E-03,+1.501602E+00
+3.250000E+00,-229.206E-03,+1.512908E+00
+3.255000E+00,-28.201E-03,+1.501602E+00
+3.260000E+00,+132.603E-03,+1.511652E+00
+3.265000E+00,-189.005E-03,+1.492808E+00
+3.270000E+00,-183.980E-03,+1.492808E+00
+3.275000E+00,+107.477E-03,+1.501602E+00
+3.280000E+00,-68.402E-03,+1.492808E+00
+3.285000E+00,-211.618E-03,+1.505371E+00
+3.290000E+00,+87.377E-03,+1.492808E+00
+3.295000E+00,+27.075E-03,+1.501602E+00
+3.300000E+00,-229.206E-03,+1.511652E+00
+3.305000E+00,-10.613E-03,+1.496577E+00
+3.310000E+00,+132.603E-03,+1.511652E+00
+3.315000E+00,-171.417E-03,+1.505371E+00
+3.320000E+00,-151.317E-03,+1.512908E+00
+3.325000E+00,+107.477E-03,+1.505371E+00
+3.330000E+00,-103.578E-03,+1.511652E+00
+3.335000E+00,-229.206E-03,+1.505371E+00
+3.340000E+00,+52.201E-03,+1.495320E+00
+3.345000E+00,-20.663E-03,+1.512908E+00
+3.350000E+00,+647.678E-03,+1.976476E+00
+3.355000E+00,+333.608E-03,+942.557E-03
+3.360000E+00,+278.332E-03,+1.933763E+00
+3.365000E+00,-400.060E-03,+1.033009E+00
+3.370000E+00,-261.869E-03,+2.033009E+00
+3.375000E+00,-111.116E-03,+1.045572E+00
+3.380000E+00,-842.271E-03,+1.492808E+00
+3.385000E+00,-349.809E-03,+1.501602E+00
+3.390000E+00,+167.779E-03,+1.512908E+00
+3.395000E+00,+74.814E-03,+1.512908E+00
+3.400000E+00,-183.980E-03,+1.511652E+00
+3.405000E+00,+6.975E-03,+1.505371E+00
+3.410000E+00,+167.779E-03,+1.512908E+00
+3.415000E+00,-163.879E-03,+1.512908E+00
+3.420000E+00,-151.317E-03,+1.512908E+00
+3.425000E+00,+132.603E-03,+1.512908E+00
+3.430000E+00,-63.377E-03,+1.511652E+00
+3.435000E+00,-269.407E-03,+1.501602E+00
+3.440000E+00,+92.402E-03,+1.511652E+00
+3.445000E+00,+57.226E-03,+1.512908E+00
+3.450000E+00,-229.206E-03,+1.492808E+00
+3.455000E+00,-10.613E-03,+1.512908E+00
+3.460000E+00,+127.578E-03,+1.492808E+00
+3.465000E+00,-163.879E-03,+1.501602E+00
+3.470000E+00,-73.427E-03,+1.492808E+00
+3.475000E+00,+200.442E-03,+1.492808E+00
+3.480000E+00,-68.402E-03,+1.511652E+00
+3.485000E+00,-229.206E-03,+1.492808E+00
+3.490000E+00,+92.402E-03,+1.492808E+00
+3.495000E+00,+12.000E-03,+1.505371E+00
+3.500000E+00,-229.206E-03,+1.495320E+00
+3.505000E+00,+12.000E-03,+1.492808E+00
+3.510000E+00,+132.603E-03,+1.511652E+00
+3.515000E+00,-189.005E-03,+1.492808E+00
+3.520000E+00,-151.317E-03,+1.492808E+00
+3.525000E+00,+147.678E-03,+1.501602E+00
+3.530000E+00,-68.402E-03,+1.492808E+00
+3.535000E+00,-251.819E-03,+1.505371E+00
+3.540000E+00,+87.377E-03,+1.511652E+00
+3.545000E+00,+34.613E-03,+1.512908E+00
+3.550000E+00,-264.382E-03,+1.492808E+00
+3.555000E+00,-10.613E-03,+1.492808E+00
+3.560000E+00,+127.578E-03,+1.492808E+00
+3.565000E+00,-204.080E-03,+1.505371E+00
+3.570000E+00,-153.829E-03,+1.492808E+00
+3.575000E+00,+115.015E-03,+1.501602E+00
+3.580000E+00,-63.377E-03,+1.492808E+00
+3.585000E+00,-239.256E-03,+1.492808E+00
+3.590000E+00,+52.201E-03,+1.492808E+00
+3.595000E+00,+12.000E-03,+1.505371E+00
+3.600000E+00,-224.181E-03,+1.492808E+00
+3.605000E+00,-10.613E-03,+1.512908E+00
+3.610000E+00,+132.603E-03,+1.495320E+00
+3.615000E+00,-163.879E-03,+1.492808E+00
+3.620000E+00,-221.668E-03,+1.495320E+00
+3.625000E+00,+132.603E-03,+1.501602E+00
+3.630000E+00,-63.377E-03,+1.511652E+00
+3.635000E+00,-269.407E-03,+1.501602E+00
+3.640000E+00,+92.402E-03,+1.492808E+00
+3.645000E+00,+17.025E-03,+1.512908E+00
+3.650000E+00,-229.206E-03,+1.511652E+00
+3.655000E+00,-3.075E-03,+1.492808E+00
+3.660000E+00,+135.116E-03,+1.511652E+00
+3.665000E+00,-189.005E-03,+1.505371E+00
+3.670000E+00,-148.804E-03,+1.495320E+00
+3.675000E+00,+107.477E-03,+1.492808E+00
+3.680000E+00,-68.402E-03,+1.492808E+00
+3.685000E+00,-234.231E-03,+1.492808E+00
+3.690000E+00,+92.402E-03,+1.492808E+00
+3.695000E+00,+12.000E-03,+1.492808E+00
+3.700000E+00,-264.382E-03,+1.495320E+00
+3.705000E+00,+12.000E-03,+1.492808E+00
+3.710000E+00,+132.603E-03,+1.492808E+00
+3.715000E+00,-204.080E-03,+1.492808E+00
+3.720000E+00,-113.628E-03,+1.492808E+00
+3.725000E+00,+132.603E-03,+1.492808E+00
+3.730000E+00,-63.377E-03,+1.492808E+00
+3.735000E+00,-194.030E-03,+1.492808E+00
+3.740000E+00,+54.714E-03,+1.512908E+00
+3.745000E+00,+34.613E-03,+1.492808E+00
+3.750000E+00,-264.382E-03,+1.492808E+00
+3.755000E+00,-10.613E-03,+1.501602E+00
+3.760000E+00,+94.915E-03,+1.495320E+00
+3.765000E+00,-171.417E-03,+1.505371E+00
+3.770000E+00,-113.628E-03,+1.511652E+00
+3.775000E+00,+132.603E-03,+1.492808E+00
+3.780000E+00,-68.402E-03,+1.492808E+00
+3.785000E+00,-211.618E-03,+1.501602E+00
+3.790000E+00,+92.402E-03,+1.495320E+00
+3.795000E+00,+34.613E-03,+1.512908E+00
+3.800000E+00,-264.382E-03,+1.492808E+00
+3.805000E+00,+27.075E-03,+1.512908E+00
+3.810000E+00,+132.603E-03,+1.492808E+00
+3.815000E+00,-163.879E-03,+1.492808E+00
+3.820000E+00,-111.116E-03,+1.492808E+00
+3.825000E+00,+107.477E-03,+1.505371E+00
+3.830000E+00,-103.578E-03,+1.512908E+00
+3.835000E+00,-244.281E-03,+1.505371E+00
+3.840000E+00,+54.714E-03,+1.512908E+00
+3.845000E+00,-3.075E-03,+1.492808E+00
+3.850000E+00,-229.206E-03,+1.511652E+00
+3.855000E+00,-10.613E-03,+1.505371E+00
+3.860000E+00,+57.226E-03,+1.492808E+00
+3.865000E+00,-189.005E-03,+1.501602E+00
+3.870000E+00,-113.628E-03,+1.512908E+00
+3.875000E+00,+132.603E-03,+1.512908E+00
+3.880000E+00,-141.266E-03,+1.512908E+00
+3.885000E+00,-229.206E-03,+1.505371E+00
+3.890000E+00,+87.377E-03,+1.495320E+00
+3.895000E+00,+12.000E-03,+1.492808E+00
+3.900000E+00,-264.382E-03,+1.492808E+00
+3.905000E+00,+27.075E-03,+1.492808E+00
+3.910000E+00,+132.603E-03,+1.492808E+00
+3.915000E+00,-189.005E-03,+1.492808E+00
+3.920000E+00,-148.804E-03,+1.495320E+00
+3.925000E+00,+132.603E-03,+1.492808E+00
+3.930000E+00,-103.578E-03,+1.492808E+00
+3.935000E+00,-269.407E-03,+1.512908E+00
+3.940000E+00,+54.714E-03,+1.492808E+00
+3.945000E+00,-3.075E-03,+1.492808E+00
+3.950000E+00,-264.382E-03,+1.492808E+00
+3.955000E+00,+12.000E-03,+1.492808E+00
+3.960000E+00,+92.402E-03,+1.492808E+00
+3.965000E+00,-189.005E-03,+1.492808E+00
+3.970000E+00,-151.317E-03,+1.492808E+00
+3.975000E+00,+147.678E-03,+1.505371E+00
+3.980000E+00,-70.915E-03,+1.495320E+00
+3.985000E+00,-244.281E-03,+1.492808E+00
+3.990000E+00,+54.714E-03,+1.511652E+00
+3.995000E+00,-3.075E-03,+1.505371E+00
+4.000000E+00,-234.231E-03,+1.492808E+00
+4.005000E+00,+12.000E-03,+1.501602E+00
+4.010000E+00,+137.628E-03,+1.511652E+00
+4.015000E+00,-171.417E-03,+1.505371E+00
+4.020000E+00,-113.628E-03,+1.492808E+00
+4.025000E+00,+107.477E-03,+1.492808E+00
+4.030000E+00,-103.578E-03,+1.495320E+00
+4.035000E+00,-211.618E-03,+1.505371E+00
+4.040000E+00,+87.377E-03,+1.492808E+00
+4.045000E+00,+39.638E-03,+1.492808E+00
+4.050000E+00,-224.181E-03,+1.492808E+00
+4.055000E+00,+12.000E-03,+1.512908E+00
+4.060000E+00,+94.915E-03,+1.495320E+00
+4.065000E+00,-204.080E-03,+1.492808E+00
+4.070000E+00,-148.804E-03,+1.492808E+00
+4.075000E+00,+132.603E-03,+1.505371E+00
+4.080000E+00,-101.065E-03,+1.475220E+00
+4.085000E+00,-251.819E-03,+1.505371E+00
+4.090000E+00,+92.402E-03,+1.512908E+00
+4.095000E+00,-3.075E-03,+1.492808E+00
+4.100000E+00,-229.206E-03,+1.492808E+00
+4.105000E+00,+27.075E-03,+1.492808E+00
+4.110000E+00,+94.915E-03,+1.492808E+00
+4.115000E+00,-189.005E-03,+1.512908E+00
+4.120000E+00,-73.427E-03,+1.492808E+00
+4.125000E+00,+132.603E-03,+1.501602E+00
+4.130000E+00,-138.754E-03,+1.511652E+00
+4.135000E+00,-229.206E-03,+1.492808E+00
+4.140000E+00,+52.201E-03,+1.492808E+00
+4.145000E+00,-3.075E-03,+1.505371E+00
+4.150000E+00,-2.103578E+00,+2.267934E+00
+4.155000E+00,-744.281E-03,+2.808135E+00
+4.160000E+00,+1.775819E+00,+2.380999E+00
+4.165000E+00,+3.107477E+00,+938.788E-03
+4.170000E+00,+642.653E-03,+628.486E-03
+4.175000E+00,-3.812121E+00,+1.583260E+00
+4.180000E+00,-2.857347E+00,+2.819441E+00
+4.185000E+00,+3.743156E+00,+1.226476E+00
+4.190000E+00,+1.429085E+00,+628.486E-03
+4.195000E+00,-4.736744E+00,+2.610898E+00
+4.200000E+00,+2.604965E+00,+1.539290E+00
+4.205000E+00,+637.628E-03,+681.250E-03
+4.210000E+00,-3.525688E+00,+2.803109E+00
+4.215000E+00,+4.823558E+00,+628.486E-03
+4.220000E+00,-5.073427E+00,+2.600848E+00
+4.225000E+00,+4.735618E+00,+742.808E-03
+4.230000E+00,-4.500563E+00,+2.313160E+00
+4.235000E+00,+4.514513E+00,+628.486E-03
+4.240000E+00,-4.872422E+00,+2.568185E+00
+4.245000E+00,+4.994412E+00,+628.486E-03
+4.250000E+00,-3.616141E+00,+2.614667E+00
+4.255000E+00,+999.437E-03,+946.325E-03
+4.260000E+00,+3.617528E+00,+893.562E-03
+4.265000E+00,-5.093528E+00,+2.828235E+00
+4.270000E+00,+903.960E-03,+948.838E-03
+4.275000E+00,+4.391397E+00,+720.195E-03
+4.280000E+00,-2.900060E+00,+2.368436E+00
+4.285000E+00,-3.895035E+00,+2.283009E+00
+4.290000E+00,+1.891397E+00,+948.838E-03
+4.295000E+00,+4.979337E+00,+628.486E-03
+4.300000E+00,+690.392E-03,+1.353361E+00
+4.305000E+00,-2.618653E+00,+2.293059E+00
+4.310000E+00,-5.055839E+00,+2.818185E+00
+4.315000E+00,-4.729206E+00,+2.638537E+00
+4.320000E+00,-2.970412E+00,+2.143562E+00
+4.325000E+00,-2.033226E+00,+999.089E-03
+4.330000E+00,-518.151E-03,+948.838E-03
+4.335000E+00,-633.729E-03,+965.170E-03
+4.340000E+00,-508.100E-03,+1.139793E+00
+4.345000E+00,-1.864884E+00,+1.343310E+00
+4.350000E+00,-4.488000E+00,+2.012908E+00
+4.355000E+00,-4.995538E+00,+2.142305E+00
+4.360000E+00,-4.189005E+00,+2.009140E+00
+4.365000E+00,-1.023176E+00,+1.380999E+00
+4.370000E+00,+4.346171E+00,+652.356E-03
+4.375000E+00,+4.027075E+00,+698.838E-03
+4.380000E+00,-2.214131E+00,+1.839542E+00
+4.385000E+00,-4.653829E+00,+2.274215E+00
+4.390000E+00,+1.665266E+00,+780.496E-03
+4.395000E+00,+3.873809E+00,+690.044E-03
+4.400000E+00,-4.570915E+00,+2.161150E+00
+4.405000E+00,-972.925E-03,+1.254114E+00
+4.410000E+00,+4.740643E+00,+628.486E-03
+4.415000E+00,-4.887497E+00,+2.320697E+00
+4.420000E+00,+3.047176E+00,+677.481E-03
+4.425000E+00,+532.100E-03,+1.367180E+00
+4.430000E+00,-907.598E-03,+1.239039E+00
+4.435000E+00,+1.838633E+00,+1.004114E+00
+4.440000E+00,+552.201E-03,+906.124E-03
+4.445000E+00,+670.291E-03,+1.271702E+00
+4.450000E+00,+253.206E-03,+867.180E-03
+4.455000E+00,-2.726693E+00,+1.987783E+00
+4.460000E+00,+5.049688E+00,+628.486E-03
+4.465000E+00,-4.091015E+00,+1.942557E+00
+4.470000E+00,+82.352E-03,+1.382255E+00
+4.475000E+00,+3.622553E+00,+628.486E-03
+4.480000E+00,-3.563377E+00,+1.658637E+00
+4.485000E+00,-1.028201E+00,+1.584516E+00
+4.490000E+00,+4.866271E+00,+628.486E-03
+4.495000E+00,+1.931598E+00,+686.275E-03
+4.500000E+00,-5.093528E+00,+1.987783E+00
+4.505000E+00,-4.322171E+00,+2.179994E+00
+4.510000E+00,+966.774E-03,+1.422456E+00
+4.515000E+00,+2.989387E+00,+1.059391E+00
+4.520000E+00,+5.014513E+00,+628.486E-03
+4.525000E+00,+4.027075E+00,+628.486E-03
+4.530000E+00,+2.019538E+00,+687.532E-03
+4.535000E+00,+758.231E-03,+935.019E-03
+4.540000E+00,+2.240643E+00,+710.145E-03
+4.545000E+00,-1.271920E+00,+1.022959E+00
+4.550000E+00,-1.663879E+00,+1.068185E+00
+4.555000E+00,+1.032100E+00,+855.873E-03
+4.560000E+00,+4.841146E+00,+628.486E-03
+4.565000E+00,+4.672804E+00,+628.486E-03
+4.570000E+00,+1.333608E+00,+1.288034E+00
+4.575000E+00,+1.406472E+00,+1.277984E+00
+4.580000E+00,-4.809608E+00,+2.109642E+00
+4.585000E+00,-2.905085E+00,+1.250346E+00
+4.590000E+00,+3.263256E+00,+677.481E-03
+4.595000E+00,+4.509487E+00,+690.044E-03
+4.600000E+00,-4.276945E+00,+2.066928E+00
+4.605000E+00,-2.168904E+00,+1.161150E+00
+4.610000E+00,+4.871296E+00,+628.486E-03
+4.615000E+00,-1.601065E+00,+1.677481E+00
+4.620000E+00,-1.533226E+00,+824.466E-03
+4.625000E+00,+4.406472E+00,+681.250E-03
+4.630000E+00,-4.920161E+00,+1.880999E+00
+4.635000E+00,+1.984362E+00,+628.486E-03
+4.640000E+00,-4.060864E+00,+2.036778E+00
+4.645000E+00,+160.241E-03,+990.295E-03
+4.650000E+00,-261.869E-03,+1.010396E+00
+4.655000E+00,+27.075E-03,+1.010396E+00
+4.660000E+00,+94.915E-03,+1.029240E+00
+4.665000E+00,-189.005E-03,+1.010396E+00
+4.670000E+00,-111.116E-03,+1.010396E+00
+4.675000E+00,+132.603E-03,+970.195E-03
+4.680000E+00,-108.603E-03,+970.195E-03
+4.685000E+00,-211.618E-03,+990.295E-03
+4.690000E+00,+54.714E-03,+970.195E-03
+4.695000E+00,+12.000E-03,+978.989E-03
+4.700000E+00,-229.206E-03,+990.295E-03
+4.705000E+00,+27.075E-03,+1.010396E+00
+4.710000E+00,+92.402E-03,+990.295E-03
+4.715000E+00,-204.080E-03,+1.030496E+00
+4.720000E+00,-73.427E-03,+1.010396E+00
+4.725000E+00,+132.603E-03,+990.295E-03
+4.730000E+00,-143.779E-03,+992.808E-03
+4.735000E+00,-163.879E-03,+990.295E-03
+4.740000E+00,+92.402E-03,+970.195E-03
+4.745000E+00,-3.075E-03,+990.295E-03
+4.750000E+00,-231.719E-03,+990.295E-03
+4.755000E+00,+67.276E-03,+990.295E-03
+4.760000E+00,+94.915E-03,+990.295E-03
+4.765000E+00,-181.467E-03,+1.002858E+00
+4.770000E+00,-70.915E-03,+1.007883E+00
+4.775000E+00,+132.603E-03,+990.295E-03
+4.780000E+00,-143.779E-03,+970.195E-03
+4.785000E+00,-204.080E-03,+970.195E-03
+4.790000E+00,+87.377E-03,+989.039E-03
+4.795000E+00,-10.613E-03,+970.195E-03
+4.800000E+00,-269.407E-03,+1.010396E+00
+4.805000E+00,+27.075E-03,+982.758E-03
+4.810000E+00,+92.402E-03,+1.010396E+00
+4.815000E+00,-221.668E-03,+1.002858E+00
+4.820000E+00,-70.915E-03,+1.009140E+00
+4.825000E+00,+132.603E-03,+1.010396E+00
+4.830000E+00,-108.603E-03,+1.050597E+00
+4.835000E+00,-229.206E-03,+999.089E-03
+4.840000E+00,+52.201E-03,+1.009140E+00
+4.845000E+00,-28.201E-03,+1.030496E+00
+4.850000E+00,-261.869E-03,+1.010396E+00
+4.855000E+00,+27.075E-03,+978.989E-03
+4.860000E+00,+92.402E-03,+990.295E-03
+4.865000E+00,-204.080E-03,+990.295E-03
+4.870000E+00,-73.427E-03,+970.195E-03
+4.875000E+00,+132.603E-03,+982.758E-03
+4.880000E+00,-108.603E-03,+970.195E-03
+4.885000E+00,-211.618E-03,+978.989E-03
+4.890000E+00,+52.201E-03,+989.039E-03
+4.895000E+00,-3.075E-03,+1.043059E+00
+4.900000E+00,-264.382E-03,+1.033009E+00
+4.905000E+00,+27.075E-03,+1.043059E+00
+4.910000E+00,+92.402E-03,+1.046828E+00
+4.915000E+00,-204.080E-03,+996.577E-03
+4.920000E+00,-70.915E-03,+1.010396E+00
+4.925000E+00,+120.040E-03,+1.010396E+00
+4.930000E+00,-141.266E-03,+1.009140E+00
+4.935000E+00,-234.231E-03,+1.010396E+00
+4.940000E+00,+127.578E-03,+1.027984E+00
+4.945000E+00,-20.663E-03,+1.030496E+00
+4.950000E+00,-231.719E-03,+1.033009E+00
+4.955000E+00,+27.075E-03,+1.022959E+00
+4.960000E+00,+94.915E-03,+1.050597E+00
+4.965000E+00,-221.668E-03,+1.039290E+00
+4.970000E+00,-108.603E-03,+1.010396E+00
+4.975000E+00,+107.477E-03,+1.043059E+00
+4.980000E+00,-143.779E-03,+989.039E-03
+4.985000E+00,-229.206E-03,+999.089E-03
+4.990000E+00,+87.377E-03,+1.069441E+00
+4.995000E+00,-28.201E-03,+1.050597E+00
+5.000000E+00,-264.382E-03,+1.030496E+00
+5.005000E+00,+27.075E-03,+1.030496E+00
+5.010000E+00,+57.226E-03,+1.049341E+00
+5.015000E+00,-204.080E-03,+1.030496E+00
