x-axis,1,2
second,Volt,Volt
+150.000E-03,-542.588E-03,+3.339E-03
+153.200E-03,+743.844E-03,-5.908E-03
+156.400E-03,-341.583E-03,-3.496E-03
+159.600E-03,-944.598E-03,+2.937E-03
+162.800E-03,+221.231E-03,+927E-06
+166.000E-03,+1.025251E+00,-8.722E-03
+169.200E-03,-180.779E-03,-4.702E-03
+172.400E-03,-1.223492E+00,+3.741E-03
+175.600E-03,-303.894E-03,+5.776E-03
+178.800E-03,+985.050E-03,-5.104E-03
+182.000E-03,+985.050E-03,-9.526E-03
+185.200E-03,-261.181E-03,-2.290E-03
+188.400E-03,-1.263693E+00,+6.555E-03
+191.600E-03,-665.703E-03,+6.153E-03
+194.800E-03,+500.126E-03,-1.058E-03
+198.000E-03,+1.145854E+00,-6.310E-03
+201.200E-03,+422.236E-03,-7.516E-03
+204.400E-03,-341.583E-03,-5.908E-03
+207.600E-03,-703.392E-03,-280E-06
+210.800E-03,-743.593E-03,+3.741E-03
+214.000E-03,-622.990E-03,+3.339E-03
+217.200E-03,-542.588E-03,+4.947E-03
+220.400E-03,-384.296E-03,+1.756E-03
+223.600E-03,+218.719E-03,+952E-06
+226.800E-03,+781.533E-03,-2.264E-03
+230.000E-03,+942.337E-03,-4.677E-03
+233.200E-03,+864.447E-03,-7.114E-03
+236.400E-03,+701.131E-03,-9.501E-03
+239.600E-03,+540.327E-03,-2.692E-03
+242.800E-03,+824.246E-03,-7.491E-03
+246.000E-03,+985.050E-03,-7.893E-03
+249.200E-03,+864.447E-03,-7.114E-03
+252.400E-03,+580.528E-03,-6.687E-03
+255.600E-03,+459.925E-03,-5.506E-03
+258.800E-03,+741.332E-03,-2.290E-03
+262.000E-03,+864.447E-03,-5.506E-03
+265.200E-03,+620.729E-03,-280E-06
+268.400E-03,+98.116E-03,+2.158E-03
+271.600E-03,-705.905E-03,+4.570E-03
+274.800E-03,-663.191E-03,+5.349E-03
+278.000E-03,-622.990E-03,+524E-06
+281.200E-03,-462.186E-03,-4.300E-03
+284.400E-03,-462.186E-03,-2.692E-03
+287.600E-03,-261.181E-03,-6.310E-03
+290.800E-03,+382.035E-03,-7.516E-03
+294.000E-03,+864.447E-03,-5.908E-03
+297.200E-03,+459.925E-03,+2.560E-03
+300.400E-03,-703.392E-03,+4.947E-03
+303.600E-03,-984.799E-03,+4.143E-03
+306.800E-03,-180.779E-03,-3.496E-03
+310.000E-03,+542.839E-03,-7.114E-03
+313.200E-03,+942.337E-03,-6.712E-03
+316.400E-03,-462.186E-03,+4.947E-03
+319.600E-03,-823.995E-03,-280E-06
+322.800E-03,-19.975E-03,-8.320E-03
+326.000E-03,+701.131E-03,-4.300E-03
+329.200E-03,+181.030E-03,+2.133E-03
+332.400E-03,-582.789E-03,+1.329E-03
+335.600E-03,-140.578E-03,-5.908E-03
+338.800E-03,+261.432E-03,+524E-06
+342.000E-03,-663.191E-03,+5.751E-03
+345.200E-03,+140.829E-03,-5.908E-03
+348.400E-03,+784.045E-03,-4.300E-03
+351.600E-03,-502.387E-03,+6.153E-03
+354.800E-03,-786.307E-03,+2.962E-03
+358.000E-03,+540.327E-03,-6.687E-03
+361.200E-03,-140.578E-03,+3.741E-03
+364.400E-03,-62.688E-03,-6.687E-03
+367.600E-03,+261.432E-03,-280E-06
+370.800E-03,-944.598E-03,+5.374E-03
+374.000E-03,+17.714E-03,-5.883E-03
+377.200E-03,+181.030E-03,+1.731E-03
+380.400E-03,-183.291E-03,-3.470E-03
+383.600E-03,+422.236E-03,-682E-06
+386.800E-03,-864.196E-03,+148E-06
+390.000E-03,+178.518E-03,-5.481E-03
+393.200E-03,-542.588E-03,+4.545E-03
+396.400E-03,+540.327E-03,-11.913E-03
+399.600E-03,+100.628E-03,+2.133E-03
+402.800E-03,-143.090E-03,-5.883E-03
+406.000E-03,-381.784E-03,+4.947E-03
+409.200E-03,+258.920E-03,-7.089E-03
+412.400E-03,+100.628E-03,+4.545E-03
+415.600E-03,+138.317E-03,-7.089E-03
+418.800E-03,-462.186E-03,+4.545E-03
+422.000E-03,+178.518E-03,-6.687E-03
+425.200E-03,-421.985E-03,+2.962E-03
+428.400E-03,+741.332E-03,-5.104E-03
+431.600E-03,-381.784E-03,+1.756E-03
+434.800E-03,+419.724E-03,-4.702E-03
+438.000E-03,-504.899E-03,-1.058E-03
+441.200E-03,-143.090E-03,+927E-06
+444.400E-03,+98.116E-03,-1.486E-03
+447.600E-03,+221.231E-03,-2.692E-03
+450.800E-03,-100.377E-03,-5.481E-03
+454.000E-03,-341.583E-03,+148E-06
+457.200E-03,-183.291E-03,-254E-06
+460.400E-03,+60.427E-03,-1.486E-03
+463.600E-03,+261.432E-03,-4.702E-03
+466.800E-03,-60.176E-03,-2.290E-03
+470.000E-03,-341.583E-03,+122E-06
+473.200E-03,-263.693E-03,-682E-06
+476.400E-03,+57.915E-03,-1.084E-03
+479.600E-03,+218.719E-03,-2.692E-03
+482.800E-03,+20.226E-03,-2.666E-03
+486.000E-03,-180.779E-03,-2.692E-03
+489.200E-03,-341.583E-03,+1.329E-03
+492.400E-03,-19.975E-03,-4.274E-03
+495.600E-03,+181.030E-03,-3.872E-03
+498.800E-03,+100.628E-03,-3.470E-03
+502.000E-03,-180.779E-03,+524E-06
+505.200E-03,-341.583E-03,+550E-06
+508.400E-03,-100.377E-03,+122E-06
+511.600E-03,+181.030E-03,-1.486E-03
+514.800E-03,+140.829E-03,-1.084E-03
+518.000E-03,-140.578E-03,+122E-06
+521.200E-03,-341.583E-03,+524E-06
+524.400E-03,-62.688E-03,+1.329E-03
+527.600E-03,+138.317E-03,-2.692E-03
+530.800E-03,+181.030E-03,-3.496E-03
+534.000E-03,-100.377E-03,-2.290E-03
+537.200E-03,-301.382E-03,-1.862E-03
+540.400E-03,-220.980E-03,+550E-06
+543.600E-03,+60.427E-03,-2.264E-03
+546.800E-03,+221.231E-03,-3.496E-03
+550.000E-03,-60.176E-03,-2.290E-03
+553.200E-03,-301.382E-03,+148E-06
+556.400E-03,-303.894E-03,-1.084E-03
+559.600E-03,+20.226E-03,-3.068E-03
+562.800E-03,+299.121E-03,-6.285E-03
+566.000E-03,+20.226E-03,-3.470E-03
+569.200E-03,-220.980E-03,-1.862E-03
+572.400E-03,-341.583E-03,+927E-06
+575.600E-03,-22.487E-03,-656E-06
+578.800E-03,+181.030E-03,-2.692E-03
+582.000E-03,+140.829E-03,-2.692E-03
+585.200E-03,-180.779E-03,-1.862E-03
+588.400E-03,-341.583E-03,+927E-06
+591.600E-03,-102.889E-03,+1.329E-03
+594.800E-03,+20.226E-03,-2.264E-03
+598.000E-03,+181.030E-03,-2.692E-03
+601.200E-03,-140.578E-03,+122E-06
+604.400E-03,-381.784E-03,-280E-06
+607.600E-03,-143.090E-03,-280E-06
+610.800E-03,+100.628E-03,-5.481E-03
+614.000E-03,+221.231E-03,-2.290E-03
+617.200E-03,-100.377E-03,-3.470E-03
+620.400E-03,-301.382E-03,+952E-06
+623.600E-03,-223.492E-03,+148E-06
+626.800E-03,+60.427E-03,-1.888E-03
+630.000E-03,+221.231E-03,-3.496E-03
+633.200E-03,-19.975E-03,-1.888E-03
+636.400E-03,-261.181E-03,-1.058E-03
+639.600E-03,-301.382E-03,+122E-06
+642.800E-03,+57.915E-03,+122E-06
+646.000E-03,+258.920E-03,-3.068E-03
+649.200E-03,+20.226E-03,-2.290E-03
+652.400E-03,-220.980E-03,-1.862E-03
+655.600E-03,-341.583E-03,+524E-06
+658.800E-03,-22.487E-03,+524E-06
+662.000E-03,+181.030E-03,-1.460E-03
+665.200E-03,+140.829E-03,-3.496E-03
+668.400E-03,-140.578E-03,-280E-06
+671.600E-03,-421.985E-03,+1.731E-03
+674.800E-03,-102.889E-03,-280E-06
+678.000E-03,+218.719E-03,-5.883E-03
+681.200E-03,+221.231E-03,-3.872E-03
+684.400E-03,-140.578E-03,-1.486E-03
+687.600E-03,-341.583E-03,+524E-06
+690.800E-03,-180.779E-03,+122E-06
+694.000E-03,+60.427E-03,-682E-06
+697.200E-03,+258.920E-03,-1.862E-03
+700.400E-03,-140.578E-03,-1.888E-03
+703.600E-03,-301.382E-03,+927E-06
+706.800E-03,-223.492E-03,+122E-06
+710.000E-03,+60.427E-03,-280E-06
+713.200E-03,+261.432E-03,-4.274E-03
+716.400E-03,+60.427E-03,-3.068E-03
+719.600E-03,-301.382E-03,+122E-06
+722.800E-03,-223.492E-03,+2.133E-03
+726.000E-03,+17.714E-03,-1.486E-03
+729.200E-03,+221.231E-03,-2.264E-03
+732.400E-03,+60.427E-03,-2.692E-03
+735.600E-03,-261.181E-03,-2.692E-03
+738.800E-03,-303.894E-03,+524E-06
+742.000E-03,-22.487E-03,-280E-06
+745.200E-03,+181.030E-03,-2.290E-03
+748.400E-03,+100.628E-03,-5.079E-03
+751.600E-03,-180.779E-03,-682E-06
+754.800E-03,-421.985E-03,+2.937E-03
+758.000E-03,-102.889E-03,+122E-06
+761.200E-03,+178.518E-03,-1.888E-03
+764.400E-03,+181.030E-03,-3.470E-03
+767.600E-03,-140.578E-03,-682E-06
+770.800E-03,-341.583E-03,-254E-06
+774.000E-03,-183.291E-03,-254E-06
+777.200E-03,+98.116E-03,-2.264E-03
+780.400E-03,+221.231E-03,-3.094E-03
+783.600E-03,-100.377E-03,-1.058E-03
+786.800E-03,-301.382E-03,+2.133E-03
+790.000E-03,-263.693E-03,-280E-06
+793.200E-03,+60.427E-03,+524E-06
+796.400E-03,+258.920E-03,-2.692E-03
+799.600E-03,-19.975E-03,-2.290E-03
+802.800E-03,-261.181E-03,+524E-06
+806.000E-03,-303.894E-03,-656E-06
+809.200E-03,+57.915E-03,-682E-06
+812.400E-03,+299.121E-03,-2.692E-03
+815.600E-03,+60.427E-03,-3.094E-03
+818.800E-03,-180.779E-03,-3.068E-03
+822.000E-03,-381.784E-03,+148E-06
+825.200E-03,-62.688E-03,-1.058E-03
+828.400E-03,+218.719E-03,-3.470E-03
+831.600E-03,+178.518E-03,-3.872E-03
+834.800E-03,-180.779E-03,+122E-06
+838.000E-03,-381.784E-03,-1.862E-03
+841.200E-03,-140.578E-03,-1.058E-03
+844.400E-03,+140.829E-03,-1.862E-03
+847.600E-03,+181.030E-03,-2.692E-03
+850.800E-03,-140.578E-03,-3.068E-03
+854.000E-03,-341.583E-03,+524E-06
+857.200E-03,-220.980E-03,-656E-06
+860.400E-03,+98.116E-03,-1.486E-03
+863.600E-03,+258.920E-03,-1.888E-03
+866.800E-03,-100.377E-03,-682E-06
+870.000E-03,-301.382E-03,-3.068E-03
+873.200E-03,-263.693E-03,+148E-06
+876.400E-03,+57.915E-03,+524E-06
+879.600E-03,+221.231E-03,-2.290E-03
+882.800E-03,+20.226E-03,-2.264E-03
+886.000E-03,-220.980E-03,-1.460E-03
+889.200E-03,-303.894E-03,-3.068E-03
+892.400E-03,+57.915E-03,-656E-06
+895.600E-03,+221.231E-03,-2.290E-03
+898.800E-03,+100.628E-03,-2.692E-03
+902.000E-03,-180.779E-03,-3.470E-03
+905.200E-03,-344.095E-03,-254E-06
+908.400E-03,-22.487E-03,-3.872E-03
+911.600E-03,+178.518E-03,-1.486E-03
+914.800E-03,+140.829E-03,-2.264E-03
+918.000E-03,-140.578E-03,-2.692E-03
+921.200E-03,-341.583E-03,+550E-06
+924.400E-03,-102.889E-03,-682E-06
+927.600E-03,-180.779E-03,+5.751E-03
+930.800E-03,+181.030E-03,+524E-06
+934.000E-03,-140.578E-03,-1.486E-03
+937.200E-03,-303.894E-03,-4.677E-03
+940.400E-03,-183.291E-03,-280E-06
+943.600E-03,+138.317E-03,-682E-06
+946.800E-03,+301.633E-03,-4.274E-03
+950.000E-03,-19.975E-03,-4.274E-03
+953.200E-03,-301.382E-03,-1.058E-03
+956.400E-03,-344.095E-03,+550E-06
+959.600E-03,-22.487E-03,-656E-06
+962.800E-03,+181.030E-03,-1.084E-03
+966.000E-03,+60.427E-03,-1.486E-03
+969.200E-03,-180.779E-03,-2.666E-03
+972.400E-03,-341.583E-03,-1.058E-03
+975.600E-03,+138.317E-03,-1.460E-03
+978.800E-03,+299.121E-03,-3.068E-03
+982.000E-03,+178.518E-03,-5.883E-03
+985.200E-03,-180.779E-03,-7.893E-03
+988.400E-03,-381.784E-03,+1.329E-03
+991.600E-03,-62.688E-03,-2.692E-03
+994.800E-03,+181.030E-03,-4.274E-03
+998.000E-03,+140.829E-03,-3.496E-03
+1.001200E+00,-143.090E-03,-2.666E-03
+1.004400E+00,-301.382E-03,-682E-06
+1.007600E+00,-102.889E-03,-682E-06
+1.010800E+00,+100.628E-03,-3.872E-03
+1.014000E+00,+181.030E-03,-4.702E-03
+1.017200E+00,-100.377E-03,-5.079E-03
+1.020400E+00,-381.784E-03,-254E-06
+1.023600E+00,-223.492E-03,-1.058E-03
+1.026800E+00,+100.628E-03,-1.460E-03
+1.030000E+00,+261.432E-03,-2.692E-03
+1.033200E+00,-60.176E-03,-1.486E-03
+1.036400E+00,-261.181E-03,+524E-06
+1.039600E+00,-263.693E-03,+524E-06
+1.042800E+00,+57.915E-03,+122E-06
+1.046000E+00,+261.432E-03,-1.888E-03
+1.049200E+00,+60.427E-03,-2.666E-03
+1.052400E+00,-261.181E-03,-656E-06
+1.055600E+00,-301.382E-03,+148E-06
+1.058800E+00,+17.714E-03,-682E-06
+1.062000E+00,+299.121E-03,-1.862E-03
+1.065200E+00,+138.317E-03,-3.094E-03
+1.068400E+00,-180.779E-03,-1.486E-03
+1.071600E+00,-381.784E-03,-254E-06
+1.074800E+00,-102.889E-03,-1.862E-03
+1.078000E+00,+140.829E-03,-2.666E-03
+1.081200E+00,+181.030E-03,-1.486E-03
+1.084400E+00,-180.779E-03,-2.666E-03
+1.087600E+00,-261.181E-03,-5.079E-03
+1.090800E+00,-303.894E-03,+952E-06
+1.094000E+00,+138.317E-03,+3.339E-03
+1.097200E+00,+500.126E-03,-5.079E-03
+1.100400E+00,+140.829E-03,-4.702E-03
+1.103600E+00,-582.789E-03,+1.731E-03
+1.106800E+00,-504.899E-03,+1.354E-03
+1.110000E+00,+57.915E-03,-2.264E-03
+1.113200E+00,+100.628E-03,-3.068E-03
+1.116400E+00,+20.226E-03,-1.486E-03
+1.119600E+00,-180.779E-03,-2.666E-03
+1.122800E+00,-303.894E-03,-280E-06
+1.126000E+00,-220.980E-03,-682E-06
+1.129200E+00,+140.829E-03,-1.862E-03
+1.132400E+00,+379.523E-03,-5.079E-03
+1.135600E+00,+20.226E-03,-2.290E-03
+1.138800E+00,-904.397E-03,-280E-06
+1.142000E+00,-60.176E-03,+524E-06
+1.145200E+00,+341.834E-03,-2.290E-03
+1.148400E+00,+218.719E-03,-2.692E-03
+1.151600E+00,-220.980E-03,-254E-06
+1.154800E+00,-301.382E-03,-656E-06
+1.158000E+00,+20.226E-03,-1.486E-03
+1.161200E+00,+100.628E-03,+524E-06
+1.164400E+00,+178.518E-03,-5.908E-03
+1.167600E+00,-140.578E-03,-1.084E-03
+1.170800E+00,-344.095E-03,-682E-06
+1.174000E+00,-180.779E-03,+927E-06
+1.177200E+00,+140.829E-03,-3.068E-03
+1.180400E+00,+221.231E-03,-3.470E-03
+1.183600E+00,-102.889E-03,-2.264E-03
+1.186800E+00,-381.784E-03,+927E-06
+1.190000E+00,-220.980E-03,+1.329E-03
+1.193200E+00,+140.829E-03,-3.470E-03
+1.196400E+00,+221.231E-03,-2.692E-03
+1.199600E+00,-62.688E-03,-2.666E-03
+1.202800E+00,-303.894E-03,-656E-06
+1.206000E+00,-220.980E-03,+524E-06
+1.209200E+00,+17.714E-03,-280E-06
+1.212400E+00,+382.035E-03,-5.481E-03
+1.215600E+00,+98.116E-03,-7.089E-03
+1.218800E+00,-464.698E-03,+122E-06
+1.222000E+00,-261.181E-03,-3.068E-03
+1.225200E+00,+100.628E-03,-3.068E-03
+1.228400E+00,+258.920E-03,-3.068E-03
+1.231600E+00,-22.487E-03,-3.496E-03
+1.234800E+00,-424.497E-03,+927E-06
+1.238000E+00,-421.985E-03,+1.731E-03
+1.241200E+00,+20.226E-03,+122E-06
+1.244400E+00,+542.839E-03,-3.898E-03
+1.247600E+00,+299.121E-03,-5.883E-03
+1.250800E+00,-622.990E-03,-4.274E-03
+1.254000E+00,-381.784E-03,+524E-06
+1.257200E+00,-180.779E-03,+122E-06
+1.260400E+00,+100.628E-03,-1.084E-03
+1.263600E+00,+580.528E-03,-4.300E-03
+1.266800E+00,-384.296E-03,-1.058E-03
+1.270000E+00,-705.905E-03,+2.133E-03
+1.273200E+00,-100.377E-03,+952E-06
+1.276400E+00,+623.241E-03,-3.496E-03
+1.279600E+00,+540.327E-03,-6.712E-03
+1.282800E+00,-341.583E-03,-4.274E-03
+1.286000E+00,-743.593E-03,-1.460E-03
+1.289200E+00,-381.784E-03,+1.354E-03
+1.292400E+00,+60.427E-03,-682E-06
+1.295600E+00,+221.231E-03,-1.486E-03
+1.298800E+00,+138.317E-03,-2.692E-03
+1.302000E+00,-183.291E-03,-656E-06
+1.305200E+00,-301.382E-03,+122E-06
+1.308400E+00,-19.975E-03,-280E-06
+1.311600E+00,+181.030E-03,-2.264E-03
+1.314800E+00,+178.518E-03,-2.290E-03
+1.318000E+00,-143.090E-03,-3.470E-03
+1.321200E+00,-303.894E-03,-682E-06
+1.324400E+00,-100.377E-03,+1.329E-03
+1.327600E+00,+98.116E-03,-2.666E-03
+1.330800E+00,+178.518E-03,-3.496E-03
+1.334000E+00,-62.688E-03,-7.089E-03
+1.337200E+00,-341.583E-03,+927E-06
+1.340400E+00,-180.779E-03,+1.329E-03
+1.343600E+00,+100.628E-03,-2.290E-03
+1.346800E+00,+299.121E-03,-4.274E-03
+1.350000E+00,-62.688E-03,-3.068E-03
+1.353200E+00,-303.894E-03,+1.329E-03
+1.356400E+00,-261.181E-03,+2.133E-03
+1.359600E+00,+20.226E-03,-682E-06
+1.362800E+00,+221.231E-03,-3.470E-03
+1.366000E+00,-19.975E-03,-3.470E-03
+1.369200E+00,-263.693E-03,-1.058E-03
+1.372400E+00,-341.583E-03,+3.741E-03
+1.375600E+00,+60.427E-03,+122E-06
+1.378800E+00,+181.030E-03,-3.470E-03
+1.382000E+00,+98.116E-03,-2.692E-03
+1.385200E+00,-183.291E-03,-682E-06
+1.388400E+00,-341.583E-03,+524E-06
+1.391600E+00,-19.975E-03,-280E-06
+1.394800E+00,+181.030E-03,-2.264E-03
+1.398000E+00,-22.487E-03,-254E-06
+1.401200E+00,+20.226E-03,-1.084E-03
+1.404400E+00,+100.628E-03,-1.888E-03
+1.407600E+00,+218.719E-03,-4.300E-03
+1.410800E+00,-183.291E-03,-4.274E-03
+1.414000E+00,-140.578E-03,+3.741E-03
+1.417200E+00,-19.975E-03,-5.079E-03
+1.420400E+00,-143.090E-03,-1.084E-03
+1.423600E+00,-381.784E-03,+122E-06
+1.426800E+00,+138.317E-03,-4.677E-03
+1.430000E+00,+218.719E-03,-1.460E-03
+1.433200E+00,+60.427E-03,-1.084E-03
+1.436400E+00,-223.492E-03,+148E-06
+1.439600E+00,-220.980E-03,+550E-06
+1.442800E+00,+60.427E-03,-1.888E-03
+1.446000E+00,+181.030E-03,-1.058E-03
+1.449200E+00,+57.915E-03,-6.285E-03
+1.452400E+00,-223.492E-03,-280E-06
+1.455600E+00,-180.779E-03,+524E-06
+1.458800E+00,-220.980E-03,-682E-06
+1.462000E+00,+140.829E-03,-3.470E-03
+1.465200E+00,+181.030E-03,-4.274E-03
+1.468400E+00,-22.487E-03,-1.486E-03
+1.471600E+00,-582.789E-03,+148E-06
+1.474800E+00,-140.578E-03,+2.133E-03
+1.478000E+00,+299.121E-03,-1.486E-03
+1.481200E+00,+178.518E-03,-3.872E-03
+1.484400E+00,-102.889E-03,+148E-06
+1.487600E+00,-301.382E-03,+952E-06
+1.490800E+00,-180.779E-03,+2.133E-03
+1.494000E+00,+140.829E-03,-1.888E-03
+1.497200E+00,+218.719E-03,-1.486E-03
+1.500400E+00,-62.688E-03,-2.264E-03
+1.503600E+00,-384.296E-03,+2.133E-03
+1.506800E+00,-220.980E-03,-2.264E-03
+1.510000E+00,+100.628E-03,-1.058E-03
+1.513200E+00,+221.231E-03,-3.872E-03
+1.516400E+00,-62.688E-03,-3.470E-03
+1.519600E+00,-301.382E-03,-280E-06
+1.522800E+00,-261.181E-03,+952E-06
+1.526000E+00,+57.915E-03,-1.058E-03
+1.529200E+00,+301.633E-03,-4.300E-03
+1.532400E+00,+98.116E-03,-2.692E-03
+1.535600E+00,-263.693E-03,-682E-06
+1.538800E+00,-421.985E-03,+2.133E-03
+1.542000E+00,+140.829E-03,-682E-06
+1.545200E+00,+459.925E-03,-6.285E-03
+1.548400E+00,-424.497E-03,+148E-06
+1.551600E+00,-140.578E-03,+927E-06
+1.554800E+00,-301.382E-03,-656E-06
+1.558000E+00,+60.427E-03,-1.058E-03
+1.561200E+00,+341.834E-03,-2.290E-03
+1.564400E+00,+583.040E-03,-7.516E-03
+1.567600E+00,-1.025000E+00,+1.354E-03
+1.570800E+00,-622.990E-03,+2.535E-03
+1.574000E+00,+181.030E-03,-1.460E-03
+1.577200E+00,+462.437E-03,-1.888E-03
+1.580400E+00,+459.925E-03,-5.506E-03
+1.583600E+00,-786.307E-03,-656E-06
+1.586800E+00,-180.779E-03,-2.666E-03
+1.590000E+00,-301.382E-03,+1.354E-03
+1.593200E+00,+20.226E-03,-3.094E-03
+1.596400E+00,+580.528E-03,-5.506E-03
+1.599600E+00,-143.090E-03,-5.481E-03
+1.602800E+00,-663.191E-03,+524E-06
+1.606000E+00,-140.578E-03,-1.460E-03
+1.609200E+00,+341.834E-03,-5.506E-03
+1.612400E+00,+580.528E-03,-6.310E-03
+1.615600E+00,-102.889E-03,-6.687E-03
+1.618800E+00,-464.698E-03,+2.133E-03
+1.622000E+00,-743.593E-03,+2.535E-03
+1.625200E+00,+140.829E-03,-682E-06
+1.628400E+00,+301.633E-03,-1.888E-03
+1.631600E+00,+181.030E-03,-1.084E-03
+1.634800E+00,-102.889E-03,-3.068E-03
+1.638000E+00,-381.784E-03,+1.731E-03
+1.641200E+00,-19.975E-03,-254E-06
+1.644400E+00,+181.030E-03,-1.888E-03
+1.647600E+00,+178.518E-03,-3.094E-03
+1.650800E+00,-102.889E-03,-1.486E-03
+1.654000E+00,-303.894E-03,-280E-06
+1.657200E+00,-301.382E-03,+1.329E-03
+1.660400E+00,+140.829E-03,-3.068E-03
+1.663600E+00,+258.920E-03,-3.068E-03
+1.666800E+00,-100.377E-03,-3.068E-03
+1.670000E+00,-223.492E-03,-1.058E-03
+1.673200E+00,-220.980E-03,+1.731E-03
+1.676400E+00,-60.176E-03,-1.486E-03
+1.679600E+00,+258.920E-03,-4.274E-03
+1.682800E+00,-60.176E-03,-682E-06
+1.686000E+00,-341.583E-03,+1.329E-03
+1.689200E+00,-62.688E-03,+524E-06
+1.692400E+00,+20.226E-03,-656E-06
+1.695600E+00,+181.030E-03,-2.264E-03
+1.698800E+00,+57.915E-03,-2.666E-03
+1.702000E+00,-344.095E-03,-1.460E-03
+1.705200E+00,-263.693E-03,+122E-06
+1.708400E+00,-60.176E-03,+122E-06
+1.711600E+00,+221.231E-03,-3.068E-03
+1.714800E+00,+138.317E-03,-2.666E-03
+1.718000E+00,-220.980E-03,+1.329E-03
+1.721200E+00,-303.894E-03,-1.460E-03
+1.724400E+00,-261.181E-03,+1.329E-03
+1.727600E+00,+221.231E-03,-1.486E-03
+1.730800E+00,+221.231E-03,-3.094E-03
+1.734000E+00,-22.487E-03,-656E-06
+1.737200E+00,-585.301E-03,+550E-06
+1.740400E+00,+20.226E-03,+122E-06
+1.743600E+00,+462.437E-03,-7.114E-03
+1.746800E+00,+258.920E-03,-6.285E-03
+1.750000E+00,-663.191E-03,-1.084E-03
+1.753200E+00,-261.181E-03,+1.329E-03
+1.756400E+00,+60.427E-03,-1.460E-03
+1.759600E+00,+60.427E-03,-1.888E-03
+1.762800E+00,+138.317E-03,-3.068E-03
+1.766000E+00,-100.377E-03,-1.084E-03
+1.769200E+00,-263.693E-03,+122E-06
+1.772400E+00,-220.980E-03,+122E-06
+1.775600E+00,-19.975E-03,+1.329E-03
+1.778800E+00,+301.633E-03,-6.285E-03
+1.782000E+00,-100.377E-03,-3.470E-03
+1.785200E+00,-183.291E-03,-280E-06
+1.788400E+00,-303.894E-03,+927E-06
+1.791600E+00,-180.779E-03,+952E-06
+1.794800E+00,+301.633E-03,-1.888E-03
+1.798000E+00,+339.322E-03,-3.898E-03
+1.801200E+00,-303.894E-03,-1.486E-03
+1.804400E+00,-344.095E-03,-1.058E-03
+1.807600E+00,-261.181E-03,-2.666E-03
+1.810800E+00,-19.975E-03,+122E-06
+1.814000E+00,+419.724E-03,-3.470E-03
+1.817200E+00,-223.492E-03,-3.470E-03
+1.820400E+00,-22.487E-03,-5.883E-03
+1.823600E+00,-100.377E-03,+122E-06
+1.826800E+00,+221.231E-03,-3.872E-03
+1.830000E+00,+583.040E-03,-10.305E-03
+1.833200E+00,-263.693E-03,-3.872E-03
+1.836400E+00,-904.397E-03,-656E-06
+1.839600E+00,-381.784E-03,+1.329E-03
+1.842800E+00,+382.035E-03,-2.666E-03
+1.846000E+00,+138.317E-03,-1.888E-03
+1.849200E+00,-19.975E-03,-1.862E-03
+1.852400E+00,-143.090E-03,-280E-06
+1.855600E+00,-220.980E-03,+927E-06
+1.858800E+00,+140.829E-03,-1.888E-03
+1.862000E+00,+261.432E-03,-3.094E-03
+1.865200E+00,-22.487E-03,-3.470E-03
+1.868400E+00,-301.382E-03,-682E-06
+1.871600E+00,-261.181E-03,-3.470E-03
+1.874800E+00,-60.176E-03,-1.058E-03
+1.878000E+00,+261.432E-03,-3.470E-03
+1.881200E+00,+100.628E-03,-4.274E-03
+1.884400E+00,-183.291E-03,-2.290E-03
+1.887600E+00,-502.387E-03,-254E-06
+1.890800E+00,-60.176E-03,-254E-06
+1.894000E+00,+301.633E-03,-3.496E-03
+1.897200E+00,+138.317E-03,-3.872E-03
+1.900400E+00,-301.382E-03,+524E-06
+1.903600E+00,-341.583E-03,+524E-06
+1.906800E+00,-180.779E-03,+1.329E-03
+1.910000E+00,+60.427E-03,-1.084E-03
+1.913200E+00,+261.432E-03,-2.290E-03
+1.916400E+00,-62.688E-03,-3.068E-03
+1.919600E+00,-341.583E-03,+927E-06
+1.922800E+00,-220.980E-03,-2.264E-03
+1.926000E+00,+60.427E-03,-1.084E-03
+1.929200E+00,+379.523E-03,-5.883E-03
+1.932400E+00,-22.487E-03,-2.290E-03
+1.935600E+00,-303.894E-03,-656E-06
+1.938800E+00,-301.382E-03,+2.133E-03
+1.942000E+00,+60.427E-03,-2.290E-03
+1.945200E+00,+261.432E-03,-2.692E-03
+1.948400E+00,-100.377E-03,+1.329E-03
+1.951600E+00,-261.181E-03,-1.058E-03
+1.954800E+00,-341.583E-03,+550E-06
+1.958000E+00,-60.176E-03,-2.666E-03
+1.961200E+00,+261.432E-03,-3.068E-03
+1.964400E+00,+178.518E-03,-2.666E-03
+1.967600E+00,-183.291E-03,-254E-06
+1.970800E+00,-421.985E-03,-656E-06
+1.974000E+00,-60.176E-03,+524E-06
+1.977200E+00,+341.834E-03,-5.104E-03
+1.980400E+00,+218.719E-03,-4.677E-03
+1.983600E+00,-381.784E-03,-656E-06
+1.986800E+00,-183.291E-03,+1.731E-03
+1.990000E+00,-140.578E-03,+927E-06
+1.993200E+00,-60.176E-03,+122E-06
+1.996400E+00,+218.719E-03,-1.084E-03
+1.999600E+00,-102.889E-03,-5.079E-03
+2.002800E+00,-303.894E-03,+148E-06
+2.006000E+00,-261.181E-03,+1.731E-03
+2.009200E+00,+138.317E-03,-1.486E-03
+2.012400E+00,+379.523E-03,-8.697E-03
+2.015600E+00,-263.693E-03,-1.084E-03
+2.018800E+00,-223.492E-03,+148E-06
+2.022000E+00,-381.784E-03,+3.741E-03
+2.025200E+00,+60.427E-03,-1.486E-03
+2.028400E+00,+261.432E-03,-2.290E-03
+2.031600E+00,+20.226E-03,-3.094E-03
+2.034800E+00,-183.291E-03,-280E-06
+2.038000E+00,-220.980E-03,-682E-06
+2.041200E+00,+181.030E-03,-3.496E-03
+2.044400E+00,-180.779E-03,-1.486E-03
+2.047600E+00,+100.628E-03,-3.068E-03
+2.050800E+00,-62.688E-03,+524E-06
+2.054000E+00,-303.894E-03,-2.666E-03
+2.057200E+00,-100.377E-03,+122E-06
+2.060400E+00,+140.829E-03,-2.666E-03
+2.063600E+00,+299.121E-03,-7.893E-03
+2.066800E+00,-143.090E-03,-1.888E-03
+2.070000E+00,-303.894E-03,+148E-06
+2.073200E+00,-220.980E-03,+550E-06
+2.076400E+00,+60.427E-03,-2.290E-03
+2.079600E+00,+181.030E-03,-5.079E-03
+2.082800E+00,-100.377E-03,-1.486E-03
+2.086000E+00,-301.382E-03,-280E-06
+2.089200E+00,-220.980E-03,-2.666E-03
+2.092400E+00,+100.628E-03,+1.731E-03
+2.095600E+00,+299.121E-03,-4.677E-03
+2.098800E+00,+57.915E-03,-1.486E-03
+2.102000E+00,-263.693E-03,-656E-06
+2.105200E+00,-341.583E-03,+1.329E-03
+2.108400E+00,-100.377E-03,-254E-06
+2.111600E+00,+221.231E-03,-1.888E-03
+2.114800E+00,+17.714E-03,-2.264E-03
+2.118000E+00,-143.090E-03,-1.862E-03
+2.121200E+00,-341.583E-03,+148E-06
+2.124400E+00,-60.176E-03,+122E-06
+2.127600E+00,+100.628E-03,-3.068E-03
+2.130800E+00,+181.030E-03,-1.888E-03
+2.134000E+00,-22.487E-03,-5.481E-03
+2.137200E+00,-263.693E-03,-1.460E-03
+2.140400E+00,-140.578E-03,-280E-06
+2.143600E+00,-62.688E-03,-1.888E-03
+2.146800E+00,+140.829E-03,-3.872E-03
+2.150000E+00,-19.975E-03,-2.264E-03
+2.153200E+00,-220.980E-03,-1.058E-03
+2.156400E+00,-100.377E-03,-656E-06
+2.159600E+00,+60.427E-03,-1.084E-03
+2.162800E+00,+100.628E-03,+1.731E-03
+2.166000E+00,-62.688E-03,-3.470E-03
+2.169200E+00,-301.382E-03,+524E-06
+2.172400E+00,-301.382E-03,+524E-06
+2.175600E+00,-100.377E-03,+550E-06
+2.178800E+00,+261.432E-03,-3.094E-03
+2.182000E+00,+57.915E-03,-1.888E-03
+2.185200E+00,-261.181E-03,+122E-06
+2.188400E+00,-261.181E-03,-656E-06
+2.191600E+00,+20.226E-03,-2.666E-03
+2.194800E+00,+140.829E-03,-1.084E-03
+2.198000E+00,+98.116E-03,-1.888E-03
+2.201200E+00,-183.291E-03,-1.460E-03
+2.204400E+00,-381.784E-03,-3.068E-03
+2.207600E+00,-60.176E-03,+952E-06
+2.210800E+00,+140.829E-03,-2.290E-03
+2.214000E+00,+178.518E-03,-3.094E-03
+2.217200E+00,-180.779E-03,+122E-06
+2.220400E+00,-303.894E-03,-280E-06
+2.223600E+00,-261.181E-03,+550E-06
+2.226800E+00,-19.975E-03,+122E-06
+2.230000E+00,+221.231E-03,-280E-06
+2.233200E+00,-261.181E-03,+148E-06
+2.236400E+00,-183.291E-03,+3.339E-03
+2.239600E+00,+221.231E-03,-1.888E-03
+2.242800E+00,+580.528E-03,-4.300E-03
+2.246000E+00,+20.226E-03,-5.506E-03
+2.249200E+00,-223.492E-03,-3.470E-03
+2.252400E+00,-984.799E-03,+2.560E-03
+2.255600E+00,-19.975E-03,+524E-06
+2.258800E+00,+379.523E-03,-1.460E-03
+2.262000E+00,+221.231E-03,-2.290E-03
+2.265200E+00,+98.116E-03,-4.300E-03
+2.268400E+00,-381.784E-03,-2.666E-03
+2.271600E+00,-542.588E-03,-254E-06
+2.274800E+00,-140.578E-03,-280E-06
+2.278000E+00,+20.226E-03,-656E-06
+2.281200E+00,+98.116E-03,-1.486E-03
+2.284400E+00,-19.975E-03,-1.058E-03
+2.287600E+00,-100.377E-03,-2.264E-03
+2.290800E+00,-421.985E-03,+1.731E-03
+2.294000E+00,+140.829E-03,-1.888E-03
+2.297200E+00,+178.518E-03,-1.862E-03
+2.300400E+00,-100.377E-03,-656E-06
+2.303600E+00,-263.693E-03,+148E-06
+2.306800E+00,+60.427E-03,-1.460E-03
+2.310000E+00,+301.633E-03,-2.692E-03
+2.313200E+00,+379.523E-03,-4.702E-03
+2.316400E+00,-864.196E-03,+1.354E-03
+2.319600E+00,-381.784E-03,-2.264E-03
+2.322800E+00,+140.829E-03,+122E-06
+2.326000E+00,+17.714E-03,+148E-06
+2.329200E+00,+341.834E-03,-3.496E-03
+2.332400E+00,+57.915E-03,-2.290E-03
+2.335600E+00,-301.382E-03,-254E-06
+2.338800E+00,-301.382E-03,+122E-06
+2.342000E+00,+17.714E-03,-1.888E-03
+2.345200E+00,+98.116E-03,-682E-06
+2.348400E+00,+98.116E-03,-3.068E-03
+2.351600E+00,-143.090E-03,-1.084E-03
+2.354800E+00,-261.181E-03,+122E-06
+2.358000E+00,+60.427E-03,-1.084E-03
+2.361200E+00,+181.030E-03,-1.486E-03
+2.364400E+00,+98.116E-03,-2.666E-03
+2.367600E+00,-180.779E-03,+1.731E-03
+2.370800E+00,-421.985E-03,+1.731E-03
+2.374000E+00,-140.578E-03,-254E-06
+2.377200E+00,+181.030E-03,-2.264E-03
+2.380400E+00,+178.518E-03,-2.666E-03
+2.383600E+00,-140.578E-03,-280E-06
+2.386800E+00,-263.693E-03,-2.264E-03
+2.390000E+00,-140.578E-03,+524E-06
+2.393200E+00,+140.829E-03,+1.731E-03
+2.396400E+00,+258.920E-03,-3.094E-03
+2.399600E+00,-102.889E-03,-2.290E-03
+2.402800E+00,-341.583E-03,-2.290E-03
+2.406000E+00,-180.779E-03,+927E-06
+2.409200E+00,+60.427E-03,-2.264E-03
+2.412400E+00,+140.829E-03,-2.290E-03
+2.415600E+00,+17.714E-03,-5.883E-03
+2.418800E+00,-261.181E-03,-1.486E-03
+2.422000E+00,-223.492E-03,+122E-06
+2.425200E+00,+60.427E-03,+148E-06
+2.428400E+00,+140.829E-03,-3.496E-03
+2.431600E+00,+57.915E-03,-2.692E-03
+2.434800E+00,-220.980E-03,-1.460E-03
+2.438000E+00,-421.985E-03,+2.158E-03
+2.441200E+00,-60.176E-03,-254E-06
+2.444400E+00,+301.633E-03,-3.094E-03
+2.447600E+00,+181.030E-03,-3.094E-03
+2.450800E+00,-180.779E-03,-656E-06
+2.454000E+00,-341.583E-03,+122E-06
+2.457200E+00,-140.578E-03,-682E-06
+2.460400E+00,+181.030E-03,-1.888E-03
+2.463600E+00,+178.518E-03,-5.079E-03
+2.466800E+00,-220.980E-03,-1.058E-03
+2.470000E+00,-261.181E-03,-656E-06
+2.473200E+00,-100.377E-03,+2.133E-03
+2.476400E+00,+140.829E-03,-2.290E-03
+2.479600E+00,+261.432E-03,-3.496E-03
+2.482800E+00,-22.487E-03,-3.094E-03
+2.486000E+00,-341.583E-03,-254E-06
+2.489200E+00,-421.985E-03,+1.731E-03
+2.492400E+00,+20.226E-03,-1.862E-03
+2.495600E+00,+258.920E-03,+927E-06
+2.498800E+00,+17.714E-03,-2.692E-03
+2.502000E+00,-102.889E-03,-1.460E-03
+2.505200E+00,-301.382E-03,+148E-06
+2.508400E+00,+60.427E-03,+1.329E-03
+2.511600E+00,+339.322E-03,-3.094E-03
+2.514800E+00,+17.714E-03,-2.666E-03
+2.518000E+00,-303.894E-03,+122E-06
+2.521200E+00,-462.186E-03,+1.329E-03
+2.524400E+00,-19.975E-03,-656E-06
+2.527600E+00,+181.030E-03,-3.496E-03
+2.530800E+00,+218.719E-03,-2.692E-03
+2.534000E+00,-102.889E-03,-1.058E-03
+2.537200E+00,-341.583E-03,-656E-06
+2.540400E+00,-19.975E-03,-1.058E-03
+2.543600E+00,+140.829E-03,-2.264E-03
+2.546800E+00,+178.518E-03,-3.068E-03
+2.550000E+00,-180.779E-03,-1.888E-03
+2.553200E+00,-301.382E-03,-254E-06
+2.556400E+00,-220.980E-03,+550E-06
+2.559600E+00,+60.427E-03,-3.068E-03
+2.562800E+00,+258.920E-03,-1.084E-03
+2.566000E+00,-102.889E-03,-4.274E-03
+2.569200E+00,-341.583E-03,+1.354E-03
+2.572400E+00,-220.980E-03,+1.731E-03
+2.575600E+00,+60.427E-03,+524E-06
+2.578800E+00,+301.633E-03,-1.486E-03
+2.582000E+00,+57.915E-03,-2.290E-03
+2.585200E+00,-183.291E-03,-1.460E-03
+2.588400E+00,-301.382E-03,-2.264E-03
+2.591600E+00,+57.915E-03,-1.460E-03
+2.594800E+00,+221.231E-03,-2.666E-03
+2.598000E+00,+138.317E-03,-3.872E-03
+2.601200E+00,-100.377E-03,-682E-06
+2.604400E+00,-421.985E-03,-656E-06
+2.607600E+00,-140.578E-03,-1.084E-03
+2.610800E+00,+181.030E-03,-1.862E-03
+2.614000E+00,+181.030E-03,-1.888E-03
+2.617200E+00,-183.291E-03,+524E-06
+2.620400E+00,-421.985E-03,+550E-06
+2.623600E+00,-180.779E-03,+2.133E-03
+2.626800E+00,+140.829E-03,-2.692E-03
+2.630000E+00,+261.432E-03,-3.068E-03
+2.633200E+00,-100.377E-03,-1.486E-03
+2.636400E+00,-303.894E-03,+122E-06
+2.639600E+00,-220.980E-03,+2.133E-03
+2.642800E+00,+100.628E-03,-1.084E-03
+2.646000E+00,+261.432E-03,-3.094E-03
+2.649200E+00,-220.980E-03,-280E-06
+2.652400E+00,-102.889E-03,-3.470E-03
+2.655600E+00,-261.181E-03,+148E-06
+2.658800E+00,+301.633E-03,-4.300E-03
+2.662000E+00,+178.518E-03,-2.666E-03
+2.665200E+00,-381.784E-03,-2.290E-03
+2.668400E+00,-180.779E-03,-1.888E-03
+2.671600E+00,-424.497E-03,+1.329E-03
+2.674800E+00,-261.181E-03,+3.339E-03
+2.678000E+00,+462.437E-03,-3.094E-03
+2.681200E+00,+379.523E-03,-4.300E-03
+2.684400E+00,-263.693E-03,-4.274E-03
+2.687600E+00,-100.377E-03,-2.666E-03
+2.690800E+00,-622.990E-03,+4.143E-03
+2.694000E+00,+301.633E-03,-2.666E-03
+2.697200E+00,+620.729E-03,-4.677E-03
+2.700400E+00,+17.714E-03,-3.496E-03
+2.703600E+00,-464.698E-03,-656E-06
+2.706800E+00,-462.186E-03,+2.133E-03
+2.710000E+00,+100.628E-03,-2.290E-03
+2.713200E+00,+218.719E-03,-3.872E-03
+2.716400E+00,-663.191E-03,+4.545E-03
+2.719600E+00,+60.427E-03,+1.731E-03
+2.722800E+00,+422.236E-03,-1.486E-03
+2.726000E+00,-263.693E-03,+1.354E-03
+2.729200E+00,+60.427E-03,-1.486E-03
+2.732400E+00,+299.121E-03,-2.692E-03
+2.735600E+00,-22.487E-03,-1.486E-03
+2.738800E+00,-180.779E-03,-280E-06
+2.742000E+00,-102.889E-03,-1.486E-03
+2.745200E+00,-19.975E-03,-5.079E-03
+2.748400E+00,-143.090E-03,-2.290E-03
+2.751600E+00,-301.382E-03,-1.460E-03
+2.754800E+00,-263.693E-03,+1.329E-03
+2.758000E+00,-19.975E-03,+524E-06
+2.761200E+00,+221.231E-03,-2.290E-03
+2.764400E+00,+140.829E-03,-280E-06
+2.767600E+00,-102.889E-03,+148E-06
+2.770800E+00,-301.382E-03,+1.329E-03
+2.774000E+00,+20.226E-03,-1.058E-03
+2.777200E+00,+221.231E-03,-3.496E-03
+2.780400E+00,+178.518E-03,-3.094E-03
+2.783600E+00,-183.291E-03,-2.264E-03
+2.786800E+00,-381.784E-03,+122E-06
+2.790000E+00,-220.980E-03,-280E-06
+2.793200E+00,+181.030E-03,-3.872E-03
+2.796400E+00,+258.920E-03,-4.274E-03
+2.799600E+00,-100.377E-03,-2.692E-03
+2.802800E+00,-421.985E-03,+122E-06
+2.806000E+00,-261.181E-03,+122E-06
+2.809200E+00,-19.975E-03,-1.058E-03
+2.812400E+00,+301.633E-03,-4.274E-03
+2.815600E+00,+98.116E-03,-4.274E-03
+2.818800E+00,-100.377E-03,-1.486E-03
+2.822000E+00,-220.980E-03,+122E-06
+2.825200E+00,-60.176E-03,+122E-06
+2.828400E+00,+181.030E-03,-2.692E-03
+2.831600E+00,-62.688E-03,-3.496E-03
+2.834800E+00,-261.181E-03,-1.084E-03
+2.838000E+00,-341.583E-03,+2.937E-03
+2.841200E+00,-19.975E-03,-280E-06
+2.844400E+00,+60.427E-03,+2.133E-03
+2.847600E+00,+138.317E-03,-3.872E-03
+2.850800E+00,-183.291E-03,+122E-06
+2.854000E+00,-381.784E-03,+122E-06
+2.857200E+00,-140.578E-03,-656E-06
+2.860400E+00,+181.030E-03,-1.888E-03
+2.863600E+00,+181.030E-03,-682E-06
+2.866800E+00,+57.915E-03,-3.470E-03
+2.870000E+00,-341.583E-03,+927E-06
+2.873200E+00,-180.779E-03,-1.058E-03
+2.876400E+00,+100.628E-03,-3.872E-03
+2.879600E+00,+181.030E-03,-5.883E-03
+2.882800E+00,-140.578E-03,-1.862E-03
+2.886000E+00,-341.583E-03,+1.354E-03
+2.889200E+00,-220.980E-03,+952E-06
+2.892400E+00,+100.628E-03,-1.486E-03
+2.895600E+00,+258.920E-03,-4.274E-03
+2.898800E+00,-62.688E-03,-1.486E-03
+2.902000E+00,-301.382E-03,-656E-06
+2.905200E+00,-301.382E-03,+122E-06
+2.908400E+00,+20.226E-03,-1.862E-03
+2.911600E+00,+261.432E-03,-3.872E-03
+2.914800E+00,+57.915E-03,-3.470E-03
+2.918000E+00,-223.492E-03,-1.058E-03
+2.921200E+00,-341.583E-03,+148E-06
+2.924400E+00,-19.975E-03,-682E-06
+2.927600E+00,+181.030E-03,-3.068E-03
+2.930800E+00,+57.915E-03,-3.068E-03
+2.934000E+00,-220.980E-03,+524E-06
+2.937200E+00,-381.784E-03,+1.354E-03
+2.940400E+00,-60.176E-03,+524E-06
+2.943600E+00,+181.030E-03,-2.692E-03
+2.946800E+00,+221.231E-03,-1.486E-03
+2.950000E+00,-140.578E-03,-280E-06
+2.953200E+00,-303.894E-03,-280E-06
+2.956400E+00,-180.779E-03,-280E-06
+2.959600E+00,+60.427E-03,-1.486E-03
+2.962800E+00,+178.518E-03,-5.079E-03
+2.966000E+00,-102.889E-03,-2.666E-03
+2.969200E+00,-303.894E-03,+1.329E-03
+2.972400E+00,-261.181E-03,+148E-06
+2.975600E+00,+20.226E-03,-1.084E-03
+2.978800E+00,+100.628E-03,-1.862E-03
+2.982000E+00,+98.116E-03,-1.084E-03
+2.985200E+00,+60.427E-03,-3.068E-03
+2.988400E+00,-143.090E-03,+122E-06
+2.991600E+00,-22.487E-03,-3.094E-03
+2.994800E+00,-60.176E-03,-5.079E-03
+2.998000E+00,-183.291E-03,-1.460E-03
+3.001200E+00,-301.382E-03,+1.354E-03
+3.004400E+00,-261.181E-03,+550E-06
+3.007600E+00,+301.633E-03,-1.084E-03
+3.010800E+00,+258.920E-03,-2.666E-03
+3.014000E+00,-102.889E-03,-682E-06
+3.017200E+00,-301.382E-03,-1.058E-03
+3.020400E+00,-19.975E-03,-682E-06
+3.023600E+00,-102.889E-03,-254E-06
+3.026800E+00,-180.779E-03,-3.068E-03
+3.030000E+00,+218.719E-03,-1.888E-03
+3.033200E+00,-421.985E-03,+2.535E-03
+3.036400E+00,+181.030E-03,-3.094E-03
+3.039600E+00,+140.829E-03,-1.486E-03
+3.042800E+00,-102.889E-03,-1.084E-03
+3.046000E+00,+20.226E-03,-3.068E-03
+3.049200E+00,+17.714E-03,-1.888E-03
+3.052400E+00,-462.186E-03,+550E-06
+3.055600E+00,-261.181E-03,+122E-06
+3.058800E+00,+20.226E-03,-1.460E-03
+3.062000E+00,+301.633E-03,-1.888E-03
+3.065200E+00,+20.226E-03,-1.888E-03
+3.068400E+00,-143.090E-03,+2.937E-03
+3.071600E+00,-261.181E-03,-1.084E-03
+3.074800E+00,-19.975E-03,-280E-06
+3.078000E+00,+140.829E-03,-2.666E-03
+3.081200E+00,+140.829E-03,-4.702E-03
+3.084400E+00,-223.492E-03,-1.058E-03
+3.087600E+00,-180.779E-03,-682E-06
+3.090800E+00,-180.779E-03,-280E-06
+3.094000E+00,-60.176E-03,-2.264E-03
+3.097200E+00,+218.719E-03,-3.068E-03
+3.100400E+00,-62.688E-03,-1.486E-03
+3.103600E+00,-223.492E-03,-1.460E-03
+3.106800E+00,-140.578E-03,+524E-06
+3.110000E+00,+140.829E-03,-3.872E-03
+3.113200E+00,+261.432E-03,-3.094E-03
+3.116400E+00,-183.291E-03,-4.274E-03
+3.119600E+00,-663.191E-03,+2.133E-03
+3.122800E+00,-140.578E-03,+524E-06
+3.126000E+00,+140.829E-03,-1.058E-03
+3.129200E+00,+341.834E-03,-5.079E-03
+3.132400E+00,+100.628E-03,-4.677E-03
+3.135600E+00,-424.497E-03,-1.084E-03
+3.138800E+00,-381.784E-03,-656E-06
+3.142000E+00,+20.226E-03,-682E-06
+3.145200E+00,+261.432E-03,-2.290E-03
+3.148400E+00,+57.915E-03,-3.470E-03
+3.151600E+00,-223.492E-03,+550E-06
+3.154800E+00,-421.985E-03,-1.058E-03
+3.158000E+00,-19.975E-03,+122E-06
+3.161200E+00,+218.719E-03,-5.079E-03
+3.164400E+00,+98.116E-03,+524E-06
+3.167600E+00,-19.975E-03,-280E-06
+3.170800E+00,-223.492E-03,+2.133E-03
+3.174000E+00,-140.578E-03,+524E-06
+3.177200E+00,+542.839E-03,-5.883E-03
+3.180400E+00,+500.126E-03,-4.300E-03
+3.183600E+00,-585.301E-03,+148E-06
+3.186800E+00,-542.588E-03,+122E-06
+3.190000E+00,-140.578E-03,-1.486E-03
+3.193200E+00,+178.518E-03,-5.883E-03
+3.196400E+00,+299.121E-03,-6.285E-03
+3.199600E+00,-143.090E-03,-2.290E-03
+3.202800E+00,-344.095E-03,+148E-06
+3.206000E+00,-180.779E-03,-1.862E-03
+3.209200E+00,+100.628E-03,-2.692E-03
+3.212400E+00,+258.920E-03,-1.486E-03
+3.215600E+00,-100.377E-03,-2.264E-03
+3.218800E+00,-303.894E-03,+2.937E-03
+3.222000E+00,-261.181E-03,-254E-06
+3.225200E+00,+57.915E-03,-1.460E-03
+3.228400E+00,+221.231E-03,-2.264E-03
+3.231600E+00,+17.714E-03,-1.486E-03
+3.234800E+00,-381.784E-03,-280E-06
+3.238000E+00,-180.779E-03,+1.329E-03
+3.241200E+00,+140.829E-03,-2.290E-03
+3.244400E+00,+462.437E-03,-5.883E-03
+3.247600E+00,-102.889E-03,-1.888E-03
+3.250800E+00,-263.693E-03,-1.460E-03
+3.254000E+00,-783.794E-03,+6.153E-03
+3.257200E+00,+100.628E-03,-280E-06
+3.260400E+00,+341.834E-03,-2.264E-03
+3.263600E+00,+138.317E-03,-3.094E-03
+3.266800E+00,-220.980E-03,-1.888E-03
+3.270000E+00,-421.985E-03,+2.937E-03
+3.273200E+00,-180.779E-03,+524E-06
+3.276400E+00,+100.628E-03,-2.290E-03
+3.279600E+00,+299.121E-03,-280E-06
+3.282800E+00,-62.688E-03,-4.274E-03
+3.286000E+00,-344.095E-03,-254E-06
+3.289200E+00,-261.181E-03,+1.329E-03
+3.292400E+00,+261.432E-03,-1.888E-03
+3.295600E+00,+419.724E-03,-5.883E-03
+3.298800E+00,-102.889E-03,-5.079E-03
+3.302000E+00,-341.583E-03,-1.862E-03
+3.305200E+00,-301.382E-03,+122E-06
+3.308400E+00,+60.427E-03,-5.481E-03
+3.311600E+00,+301.633E-03,-2.692E-03
+3.314800E+00,+178.518E-03,-1.486E-03
+3.318000E+00,-303.894E-03,-1.486E-03
+3.321200E+00,-381.784E-03,-656E-06
+3.324400E+00,-60.176E-03,-1.058E-03
+3.327600E+00,+140.829E-03,-1.084E-03
+3.330800E+00,+57.915E-03,-1.888E-03
+3.334000E+00,-180.779E-03,-254E-06
+3.337200E+00,-303.894E-03,-280E-06
+3.340400E+00,+60.427E-03,+122E-06
+3.343600E+00,+60.427E-03,-682E-06
+3.346800E+00,+462.437E-03,-4.702E-03
+3.350000E+00,+178.518E-03,-3.898E-03
+3.353200E+00,-301.382E-03,-1.084E-03
+3.356400E+00,-1.105402E+00,+6.153E-03
+3.359600E+00,-180.779E-03,-656E-06
+3.362800E+00,+942.337E-03,-6.687E-03
+3.366000E+00,+17.714E-03,-1.888E-03
+3.369200E+00,-424.497E-03,+148E-06
+3.372400E+00,-542.588E-03,+2.937E-03
+3.375600E+00,+743.844E-03,-3.898E-03
+3.378800E+00,+580.528E-03,-4.300E-03
+3.382000E+00,-22.487E-03,-5.883E-03
+3.385200E+00,-1.585301E+00,+3.766E-03
+3.388400E+00,-421.985E-03,+4.545E-03
+3.391600E+00,+902.136E-03,-2.290E-03
+3.394800E+00,+701.131E-03,-5.506E-03
+3.398000E+00,-100.377E-03,-2.666E-03
+3.401200E+00,-823.995E-03,+2.535E-03
+3.404400E+00,-341.583E-03,+1.354E-03
+3.407600E+00,+663.442E-03,-5.104E-03
+3.410800E+00,+781.533E-03,-7.114E-03
+3.414000E+00,-301.382E-03,-6.285E-03
+3.417200E+00,-1.346608E+00,+5.776E-03
+3.420400E+00,-180.779E-03,+1.329E-03
+3.423600E+00,+60.427E-03,+148E-06
+3.426800E+00,+500.126E-03,-3.470E-03
+3.430000E+00,+583.040E-03,-8.295E-03
+3.433200E+00,-746.106E-03,+2.560E-03
+3.436400E+00,-703.392E-03,+3.339E-03
+3.439600E+00,-180.779E-03,-254E-06
+3.442800E+00,+902.136E-03,-5.883E-03
+3.446000E+00,+339.322E-03,-10.305E-03
+3.449200E+00,-62.688E-03,-4.274E-03
+3.452400E+00,-625.502E-03,-254E-06
+3.455600E+00,-542.588E-03,+927E-06
+3.458800E+00,-62.688E-03,-1.460E-03
+3.462000E+00,+301.633E-03,-1.486E-03
+3.465200E+00,+98.116E-03,-3.470E-03
+3.468400E+00,-261.181E-03,+148E-06
+3.471600E+00,-261.181E-03,+5.349E-03
+3.474800E+00,+100.628E-03,-1.888E-03
+3.478000E+00,+221.231E-03,-1.486E-03
+3.481200E+00,-140.578E-03,-3.068E-03
+3.484400E+00,-341.583E-03,+927E-06
+3.487600E+00,-140.578E-03,-1.862E-03
+3.490800E+00,+100.628E-03,-2.290E-03
+3.494000E+00,-102.889E-03,-254E-06
+3.497200E+00,-19.975E-03,-1.460E-03
+3.500400E+00,+100.628E-03,-1.486E-03
+3.503600E+00,-223.492E-03,-656E-06
+3.506800E+00,-341.583E-03,+2.133E-03
+3.510000E+00,+221.231E-03,-682E-06
+3.513200E+00,+382.035E-03,-3.898E-03
+3.516400E+00,-183.291E-03,-3.068E-03
+3.519600E+00,-303.894E-03,+2.560E-03
+3.522800E+00,-60.176E-03,-682E-06
+3.526000E+00,+100.628E-03,-1.888E-03
+3.529200E+00,-19.975E-03,-1.460E-03
+3.532400E+00,-102.889E-03,-1.888E-03
+3.535600E+00,-62.688E-03,-1.862E-03
+3.538800E+00,-381.784E-03,+524E-06
+3.542000E+00,+620.729E-03,-7.089E-03
+3.545200E+00,-663.191E-03,+1.329E-03
+3.548400E+00,+100.628E-03,+122E-06
+3.551600E+00,-22.487E-03,-3.872E-03
+3.554800E+00,-100.377E-03,+524E-06
+3.558000E+00,+140.829E-03,-1.486E-03
+3.561200E+00,+181.030E-03,-6.687E-03
+3.564400E+00,+98.116E-03,-5.079E-03
+3.567600E+00,-303.894E-03,+1.329E-03
+3.570800E+00,-502.387E-03,-1.058E-03
+3.574000E+00,-100.377E-03,-1.084E-03
+3.577200E+00,+540.327E-03,-6.687E-03
+3.580400E+00,+178.518E-03,-3.872E-03
+3.583600E+00,-223.492E-03,-656E-06
+3.586800E+00,-542.588E-03,+927E-06
+3.590000E+00,-19.975E-03,-1.862E-03
+3.593200E+00,+100.628E-03,-280E-06
+3.596400E+00,+218.719E-03,-1.084E-03
+3.599600E+00,-62.688E-03,-1.460E-03
+3.602800E+00,-223.492E-03,-1.084E-03
+3.606000E+00,-100.377E-03,-1.084E-03
+3.609200E+00,+98.116E-03,-1.058E-03
+3.612400E+00,+218.719E-03,-3.872E-03
+3.615600E+00,-180.779E-03,-2.264E-03
+3.618800E+00,-303.894E-03,+2.133E-03
+3.622000E+00,-341.583E-03,+952E-06
+3.625200E+00,+299.121E-03,-5.883E-03
+3.628400E+00,+382.035E-03,-3.496E-03
+3.631600E+00,+100.628E-03,-3.496E-03
+3.634800E+00,-421.985E-03,-280E-06
+3.638000E+00,-220.980E-03,-280E-06
+3.641200E+00,+57.915E-03,-1.862E-03
+3.644400E+00,+57.915E-03,-1.058E-03
+3.647600E+00,-180.779E-03,+927E-06
+3.650800E+00,-102.889E-03,+1.731E-03
+3.654000E+00,-462.186E-03,+927E-06
+3.657200E+00,+221.231E-03,-280E-06
+3.660400E+00,+382.035E-03,-1.888E-03
+3.663600E+00,+100.628E-03,-3.094E-03
+3.666800E+00,-223.492E-03,-1.862E-03
+3.670000E+00,-502.387E-03,+1.354E-03
+3.673200E+00,+140.829E-03,-1.058E-03
+3.676400E+00,-140.578E-03,+8.565E-03
+3.679600E+00,+60.427E-03,-2.264E-03
+3.682800E+00,-19.975E-03,-1.486E-03
+3.686000E+00,-223.492E-03,+3.741E-03
+3.689200E+00,+221.231E-03,-3.470E-03
+3.692400E+00,-60.176E-03,-2.290E-03
+3.695600E+00,+20.226E-03,-4.677E-03
+3.698800E+00,-183.291E-03,-2.666E-03
+3.702000E+00,-464.698E-03,+2.133E-03
+3.705200E+00,-421.985E-03,+2.133E-03
+3.708400E+00,+140.829E-03,-1.460E-03
+3.711600E+00,+301.633E-03,-1.460E-03
+3.714800E+00,+138.317E-03,-3.496E-03
+3.718000E+00,-464.698E-03,-2.264E-03
+3.721200E+00,-180.779E-03,-656E-06
+3.724400E+00,+261.432E-03,+122E-06
+3.727600E+00,-100.377E-03,-2.692E-03
+3.730800E+00,+140.829E-03,-2.692E-03
+3.734000E+00,-102.889E-03,-4.677E-03
+3.737200E+00,-381.784E-03,+2.133E-03
+3.740400E+00,+20.226E-03,-3.470E-03
+3.743600E+00,+181.030E-03,-3.068E-03
+3.746800E+00,+140.829E-03,-3.872E-03
+3.750000E+00,-223.492E-03,-682E-06
+3.753200E+00,-341.583E-03,-1.058E-03
+3.756400E+00,-220.980E-03,-280E-06
+3.759600E+00,+140.829E-03,-280E-06
+3.762800E+00,+218.719E-03,-5.079E-03
+3.766000E+00,-62.688E-03,-1.888E-03
+3.769200E+00,-341.583E-03,-254E-06
+3.772400E+00,-180.779E-03,-1.058E-03
+3.775600E+00,+60.427E-03,-2.692E-03
+3.778800E+00,+17.714E-03,-1.888E-03
+3.782000E+00,-100.377E-03,-1.888E-03
+3.785200E+00,-62.688E-03,-1.058E-03
+3.788400E+00,-341.583E-03,+148E-06
+3.791600E+00,+20.226E-03,-1.486E-03
+3.794800E+00,+379.523E-03,-4.677E-03
+3.798000E+00,-143.090E-03,-1.888E-03
+3.801200E+00,-183.291E-03,-3.872E-03
+3.804400E+00,-344.095E-03,-2.264E-03
+3.807600E+00,+60.427E-03,-280E-06
+3.810800E+00,+341.834E-03,-3.094E-03
+3.814000E+00,+178.518E-03,-2.290E-03
+3.817200E+00,-140.578E-03,-5.079E-03
+3.820400E+00,-783.794E-03,+2.535E-03
+3.823600E+00,+20.226E-03,-280E-06
+3.826800E+00,+140.829E-03,-2.290E-03
+3.830000E+00,+258.920E-03,-3.470E-03
+3.833200E+00,-62.688E-03,-2.666E-03
+3.836400E+00,-344.095E-03,-1.888E-03
+3.839600E+00,-140.578E-03,+927E-06
+3.842800E+00,+140.829E-03,-1.084E-03
+3.846000E+00,+17.714E-03,-2.264E-03
+3.849200E+00,+221.231E-03,-3.094E-03
+3.852400E+00,-424.497E-03,+524E-06
+3.855600E+00,-381.784E-03,+2.133E-03
+3.858800E+00,+181.030E-03,-3.068E-03
+3.862000E+00,+221.231E-03,-5.079E-03
+3.865200E+00,+60.427E-03,-5.481E-03
+3.868400E+00,-22.487E-03,-5.883E-03
+3.871600E+00,-984.799E-03,+3.364E-03
+3.874800E+00,+140.829E-03,+122E-06
+3.878000E+00,+382.035E-03,-1.486E-03
+3.881200E+00,+138.317E-03,-2.666E-03
+3.884400E+00,-220.980E-03,-2.666E-03
+3.887600E+00,-301.382E-03,+122E-06
+3.890800E+00,-19.975E-03,-682E-06
+3.894000E+00,+181.030E-03,-1.460E-03
+3.897200E+00,+98.116E-03,+122E-06
+3.900400E+00,-180.779E-03,-2.264E-03
+3.903600E+00,-341.583E-03,+524E-06
+3.906800E+00,-60.176E-03,-2.666E-03
+3.910000E+00,+181.030E-03,-3.496E-03
+3.913200E+00,+138.317E-03,-3.470E-03
+3.916400E+00,-143.090E-03,-1.058E-03
+3.919600E+00,-341.583E-03,+122E-06
+3.922800E+00,-100.377E-03,+122E-06
+3.926000E+00,+140.829E-03,-2.666E-03
+3.929200E+00,+140.829E-03,-280E-06
+3.932400E+00,-180.779E-03,-1.058E-03
+3.935600E+00,-303.894E-03,+1.329E-03
+3.938800E+00,-220.980E-03,-682E-06
+3.942000E+00,+20.226E-03,-1.862E-03
+3.945200E+00,+258.920E-03,-3.470E-03
+3.948400E+00,-100.377E-03,-1.486E-03
+3.951600E+00,-303.894E-03,+927E-06
+3.954800E+00,-220.980E-03,-3.470E-03
+3.958000E+00,+60.427E-03,-3.470E-03
+3.961200E+00,+261.432E-03,-4.702E-03
+3.964400E+00,+57.915E-03,-2.692E-03
+3.967600E+00,-183.291E-03,-4.274E-03
+3.970800E+00,-381.784E-03,-1.084E-03
+3.974000E+00,+20.226E-03,+122E-06
+3.977200E+00,+140.829E-03,-3.094E-03
+3.980400E+00,+100.628E-03,-2.264E-03
+3.983600E+00,-183.291E-03,+927E-06
+3.986800E+00,-303.894E-03,-254E-06
+3.990000E+00,-60.176E-03,-2.666E-03
+3.993200E+00,+221.231E-03,-2.692E-03
+3.996400E+00,+138.317E-03,-3.068E-03
+3.999600E+00,-263.693E-03,-2.666E-03
+4.002800E+00,-381.784E-03,+952E-06
+4.006000E+00,-100.377E-03,-254E-06
+4.009200E+00,+221.231E-03,-1.486E-03
+4.012400E+00,+341.834E-03,-3.496E-03
+4.015600E+00,-22.487E-03,-1.084E-03
+4.018800E+00,-223.492E-03,+927E-06
+4.022000E+00,-381.784E-03,+2.133E-03
+4.025200E+00,+20.226E-03,-5.883E-03
+4.028400E+00,+299.121E-03,-2.290E-03
+4.031600E+00,-102.889E-03,-2.264E-03
+4.034800E+00,-261.181E-03,-1.460E-03
+4.038000E+00,-261.181E-03,-1.862E-03
+4.041200E+00,+60.427E-03,-2.666E-03
+4.044400E+00,+221.231E-03,-2.290E-03
+4.047600E+00,+17.714E-03,-5.079E-03
+4.050800E+00,-263.693E-03,+122E-06
+4.054000E+00,-421.985E-03,-1.862E-03
+4.057200E+00,+17.714E-03,-2.264E-03
+4.060400E+00,+181.030E-03,-1.888E-03
+4.063600E+00,+138.317E-03,-3.068E-03
+4.066800E+00,-180.779E-03,-1.058E-03
+4.070000E+00,-301.382E-03,+927E-06
+4.073200E+00,-140.578E-03,+1.329E-03
+4.076400E+00,+181.030E-03,-2.692E-03
+4.079600E+00,+341.834E-03,-6.687E-03
+4.082800E+00,-220.980E-03,-2.264E-03
+4.086000E+00,-582.789E-03,+1.329E-03
+4.089200E+00,-19.975E-03,-682E-06
+4.092400E+00,+100.628E-03,-2.290E-03
+4.095600E+00,-140.578E-03,-2.666E-03
+4.098800E+00,-140.578E-03,+148E-06
+4.102000E+00,+100.628E-03,-1.460E-03
+4.105200E+00,-180.779E-03,+122E-06
+4.108400E+00,+100.628E-03,-4.274E-03
+4.111600E+00,-140.578E-03,-3.068E-03
+4.114800E+00,+100.628E-03,-5.079E-03
+4.118000E+00,-183.291E-03,-1.460E-03
+4.121200E+00,-984.799E-03,+5.374E-03
+4.124400E+00,+301.633E-03,+122E-06
+4.127600E+00,+540.327E-03,-3.898E-03
+4.130800E+00,+138.317E-03,-3.872E-03
+4.134000E+00,-100.377E-03,-2.692E-03
+4.137200E+00,-180.779E-03,-1.888E-03
+4.140400E+00,-140.578E-03,-3.094E-03
+4.143600E+00,-180.779E-03,-1.888E-03
+4.146800E+00,-183.291E-03,-2.290E-03
+4.150000E+00,-261.181E-03,+1.329E-03
+4.153200E+00,-261.181E-03,+2.158E-03
+4.156400E+00,+100.628E-03,+524E-06
+4.159600E+00,+221.231E-03,-3.068E-03
+4.162800E+00,+339.322E-03,-6.285E-03
+4.166000E+00,-62.688E-03,-2.666E-03
+4.169200E+00,-424.497E-03,+2.133E-03
+4.172400E+00,-180.779E-03,+148E-06
+4.175600E+00,+181.030E-03,+524E-06
+4.178800E+00,+301.633E-03,-4.274E-03
+4.182000E+00,-183.291E-03,-1.460E-03
+4.185200E+00,-263.693E-03,-1.862E-03
+4.188400E+00,-180.779E-03,+927E-06
+4.191600E+00,+60.427E-03,+1.731E-03
+4.194800E+00,+261.432E-03,-2.264E-03
+4.198000E+00,+20.226E-03,-1.888E-03
+4.201200E+00,-263.693E-03,-1.460E-03
+4.204400E+00,-301.382E-03,-656E-06
+4.207600E+00,-60.176E-03,-280E-06
+4.210800E+00,+261.432E-03,-4.274E-03
+4.214000E+00,+98.116E-03,-1.084E-03
+4.217200E+00,-220.980E-03,+122E-06
+4.220400E+00,-341.583E-03,-656E-06
+4.223600E+00,+20.226E-03,-2.264E-03
+4.226800E+00,+181.030E-03,-5.481E-03
+4.230000E+00,+138.317E-03,-3.068E-03
+4.233200E+00,-180.779E-03,+122E-06
+4.236400E+00,-341.583E-03,+927E-06
+4.239600E+00,-100.377E-03,-280E-06
+4.242800E+00,+181.030E-03,-3.094E-03
+4.246000E+00,+218.719E-03,-2.666E-03
+4.249200E+00,-183.291E-03,-1.862E-03
+4.252400E+00,-381.784E-03,+524E-06
+4.255600E+00,-220.980E-03,-254E-06
+4.258800E+00,+100.628E-03,+927E-06
+4.262000E+00,+261.432E-03,-6.285E-03
+4.265200E+00,+17.714E-03,-1.084E-03
+4.268400E+00,-261.181E-03,-1.058E-03
+4.271600E+00,-140.578E-03,-682E-06
+4.274800E+00,+100.628E-03,-1.486E-03
+4.278000E+00,+178.518E-03,-2.290E-03
+4.281200E+00,-102.889E-03,-2.666E-03
+4.284400E+00,-303.894E-03,-2.264E-03
+4.287600E+00,-341.583E-03,+524E-06
+4.290800E+00,+138.317E-03,-2.264E-03
+4.294000E+00,+261.432E-03,-1.486E-03
+4.297200E+00,+98.116E-03,-682E-06
+4.300400E+00,-220.980E-03,-1.058E-03
+4.303600E+00,-341.583E-03,+2.560E-03
+4.306800E+00,+20.226E-03,-4.274E-03
+4.310000E+00,-100.377E-03,-1.084E-03
+4.313200E+00,+140.829E-03,-1.486E-03
+4.316400E+00,-183.291E-03,-656E-06
+4.319600E+00,-424.497E-03,+1.329E-03
+4.322800E+00,-140.578E-03,-1.058E-03
+4.326000E+00,+181.030E-03,-2.666E-03
+4.329200E+00,+178.518E-03,-3.094E-03
+4.332400E+00,-183.291E-03,-3.470E-03
+4.335600E+00,-381.784E-03,-3.068E-03
+4.338800E+00,-220.980E-03,+2.133E-03
+4.342000E+00,+100.628E-03,-6.285E-03
+4.345200E+00,+218.719E-03,-3.898E-03
+4.348400E+00,-143.090E-03,-682E-06
+4.351600E+00,-462.186E-03,+2.133E-03
+4.354800E+00,-261.181E-03,+927E-06
+4.358000E+00,+140.829E-03,-1.888E-03
+4.361200E+00,+301.633E-03,-1.084E-03
+4.364400E+00,+57.915E-03,-2.264E-03
+4.367600E+00,-62.688E-03,+122E-06
+4.370800E+00,-220.980E-03,+1.354E-03
+4.374000E+00,+17.714E-03,-3.872E-03
+4.377200E+00,+140.829E-03,-2.290E-03
+4.380400E+00,-19.975E-03,-280E-06
+4.383600E+00,-183.291E-03,-1.058E-03
+4.386800E+00,-381.784E-03,-280E-06
+4.390000E+00,-19.975E-03,+927E-06
+4.393200E+00,+301.633E-03,-3.068E-03
+4.396400E+00,+221.231E-03,-1.888E-03
+4.399600E+00,-223.492E-03,-280E-06
+4.402800E+00,-381.784E-03,-1.862E-03
+4.406000E+00,-22.487E-03,-2.666E-03
+4.409200E+00,+17.714E-03,-3.094E-03
+4.412400E+00,+138.317E-03,-4.677E-03
+4.415600E+00,-143.090E-03,-2.264E-03
+4.418800E+00,-301.382E-03,+952E-06
+4.422000E+00,-100.377E-03,-1.460E-03
+4.425200E+00,+100.628E-03,-2.264E-03
+4.428400E+00,+140.829E-03,-2.290E-03
+4.431600E+00,-62.688E-03,-2.264E-03
+4.434800E+00,-263.693E-03,+927E-06
+4.438000E+00,-301.382E-03,+3.339E-03
+4.441200E+00,+60.427E-03,-1.888E-03
+4.444400E+00,+261.432E-03,-3.496E-03
+4.447600E+00,+57.915E-03,-1.862E-03
+4.450800E+00,-381.784E-03,+1.329E-03
+4.454000E+00,-301.382E-03,+2.535E-03
+4.457200E+00,+100.628E-03,-682E-06
+4.460400E+00,+221.231E-03,-3.470E-03
+4.463600E+00,+57.915E-03,-4.274E-03
+4.466800E+00,-183.291E-03,-1.084E-03
+4.470000E+00,-381.784E-03,-1.486E-03
+4.473200E+00,-60.176E-03,+927E-06
+4.476400E+00,+181.030E-03,-3.470E-03
+4.479600E+00,+178.518E-03,-3.496E-03
+4.482800E+00,-180.779E-03,-4.677E-03
+4.486000E+00,-341.583E-03,+927E-06
+4.489200E+00,-100.377E-03,+2.133E-03
+4.492400E+00,+20.226E-03,-1.084E-03
+4.495600E+00,+178.518E-03,-3.496E-03
+4.498800E+00,-100.377E-03,-1.460E-03
+4.502000E+00,-261.181E-03,+524E-06
+4.505200E+00,-180.779E-03,+524E-06
+4.508400E+00,+100.628E-03,-1.486E-03
+4.511600E+00,+221.231E-03,-3.496E-03
+4.514800E+00,-62.688E-03,-2.290E-03
+4.518000E+00,-303.894E-03,-2.264E-03
+4.521200E+00,-220.980E-03,-1.058E-03
+4.524400E+00,+138.317E-03,-2.666E-03
+4.527600E+00,+258.920E-03,-2.290E-03
+4.530800E+00,-22.487E-03,-1.862E-03
+4.534000E+00,-301.382E-03,+1.329E-03
+4.537200E+00,-344.095E-03,+3.741E-03
+4.540400E+00,+20.226E-03,-254E-06
+4.543600E+00,+181.030E-03,-3.470E-03
+4.546800E+00,+98.116E-03,-5.104E-03
+4.550000E+00,-180.779E-03,-1.058E-03
+4.553200E+00,-223.492E-03,-4.274E-03
+4.556400E+00,-60.176E-03,-4.274E-03
+4.559600E+00,+140.829E-03,-1.888E-03
+4.562800E+00,+140.829E-03,+927E-06
+4.566000E+00,-180.779E-03,-1.460E-03
+4.569200E+00,-341.583E-03,+1.756E-03
+4.572400E+00,-140.578E-03,+122E-06
+4.575600E+00,+178.518E-03,-1.888E-03
+4.578800E+00,+218.719E-03,-3.898E-03
+4.582000E+00,-102.889E-03,-1.888E-03
+4.585200E+00,-301.382E-03,+524E-06
+4.588400E+00,-220.980E-03,-1.084E-03
+4.591600E+00,+140.829E-03,-1.486E-03
+4.594800E+00,+299.121E-03,-4.677E-03
+4.598000E+00,-143.090E-03,-1.058E-03
+4.601200E+00,-303.894E-03,-1.862E-03
+4.604400E+00,-220.980E-03,+2.133E-03
+4.607600E+00,-19.975E-03,-1.084E-03
+4.610800E+00,+382.035E-03,-6.285E-03
+4.614000E+00,+57.915E-03,-3.470E-03
+4.617200E+00,-62.688E-03,-3.872E-03
+4.620400E+00,-826.508E-03,+2.560E-03
+4.623600E+00,-301.382E-03,+2.937E-03
+4.626800E+00,+540.327E-03,-1.486E-03
+4.630000E+00,+339.322E-03,-1.888E-03
+4.633200E+00,+60.427E-03,-1.888E-03
+4.636400E+00,-424.497E-03,-656E-06
+4.639600E+00,-60.176E-03,-1.084E-03
+4.642800E+00,+341.834E-03,-4.702E-03
+4.646000E+00,-303.894E-03,-1.862E-03
+4.649200E+00,-344.095E-03,+1.329E-03
+4.652400E+00,-421.985E-03,+2.158E-03
+4.655600E+00,+140.829E-03,-1.460E-03
+4.658800E+00,+422.236E-03,-2.692E-03
+4.662000E+00,+258.920E-03,-6.285E-03
+4.665200E+00,-223.492E-03,-3.872E-03
+4.668400E+00,-502.387E-03,-254E-06
+4.671600E+00,-263.693E-03,-5.883E-03
+4.674800E+00,+20.226E-03,-4.274E-03
+4.678000E+00,+299.121E-03,-3.094E-03
+4.681200E+00,-22.487E-03,-1.486E-03
+4.684400E+00,-303.894E-03,+550E-06
+4.687600E+00,-301.382E-03,-3.470E-03
+4.690800E+00,+20.226E-03,-682E-06
+4.694000E+00,+261.432E-03,-2.666E-03
+4.697200E+00,+98.116E-03,-3.068E-03
+4.700400E+00,+17.714E-03,-4.677E-03
+4.703600E+00,-261.181E-03,+122E-06
+4.706800E+00,-60.176E-03,-1.486E-03
+4.710000E+00,+140.829E-03,-1.888E-03
+4.713200E+00,-22.487E-03,-2.264E-03
+4.716400E+00,-301.382E-03,-656E-06
+4.719600E+00,-341.583E-03,+1.731E-03
+4.722800E+00,-19.975E-03,-4.274E-03
+4.726000E+00,+221.231E-03,-3.068E-03
+4.729200E+00,+258.920E-03,-2.290E-03
+4.732400E+00,-183.291E-03,-2.666E-03
+4.735600E+00,-341.583E-03,-280E-06
+4.738800E+00,-140.578E-03,+550E-06
+4.742000E+00,+140.829E-03,-1.084E-03
+4.745200E+00,+221.231E-03,-3.094E-03
+4.748400E+00,-140.578E-03,-3.094E-03
+4.751600E+00,-341.583E-03,-682E-06
+4.754800E+00,-183.291E-03,+1.354E-03
+4.758000E+00,+60.427E-03,-1.486E-03
+4.761200E+00,+221.231E-03,-4.300E-03
+4.764400E+00,-60.176E-03,-2.290E-03
+4.767600E+00,-301.382E-03,-682E-06
+4.770800E+00,-263.693E-03,-656E-06
+4.774000E+00,-19.975E-03,+122E-06
+4.777200E+00,+419.724E-03,-6.285E-03
+4.780400E+00,+60.427E-03,-3.068E-03
+4.783600E+00,-220.980E-03,+1.329E-03
+4.786800E+00,-301.382E-03,-280E-06
+4.790000E+00,+57.915E-03,-280E-06
+4.793200E+00,+258.920E-03,-4.274E-03
+4.796400E+00,+140.829E-03,-2.692E-03
+4.799600E+00,-180.779E-03,-2.692E-03
+4.802800E+00,-381.784E-03,+122E-06
+4.806000E+00,-102.889E-03,-682E-06
+4.809200E+00,+138.317E-03,-1.862E-03
+4.812400E+00,+140.829E-03,-5.481E-03
+4.815600E+00,-140.578E-03,-1.460E-03
+4.818800E+00,-341.583E-03,+122E-06
+4.822000E+00,-140.578E-03,-1.084E-03
+4.825200E+00,+100.628E-03,-2.666E-03
+4.828400E+00,+221.231E-03,-3.496E-03
+4.831600E+00,-140.578E-03,-1.460E-03
+4.834800E+00,-261.181E-03,+927E-06
+4.838000E+00,-183.291E-03,+927E-06
+4.841200E+00,+98.116E-03,-1.084E-03
+4.844400E+00,+261.432E-03,-3.068E-03
+4.847600E+00,-60.176E-03,-2.692E-03
+4.850800E+00,-381.784E-03,-254E-06
+4.854000E+00,-263.693E-03,+1.329E-03
+4.857200E+00,+60.427E-03,+524E-06
+4.860400E+00,+221.231E-03,-1.486E-03
+4.863600E+00,+20.226E-03,-2.264E-03
+4.866800E+00,-180.779E-03,-1.862E-03
+4.870000E+00,-263.693E-03,+148E-06
+4.873200E+00,+57.915E-03,-3.470E-03
+4.876400E+00,+140.829E-03,-2.290E-03
+4.879600E+00,+100.628E-03,-5.481E-03
+4.882800E+00,-301.382E-03,+524E-06
+4.886000E+00,-502.387E-03,+122E-06
+4.889200E+00,-223.492E-03,-682E-06
+4.892400E+00,+60.427E-03,-3.094E-03
+4.895600E+00,+181.030E-03,-3.094E-03
+4.898800E+00,-100.377E-03,-1.460E-03
+4.902000E+00,-263.693E-03,-254E-06
+4.905200E+00,-62.688E-03,-2.666E-03
+4.908400E+00,+178.518E-03,-1.888E-03
+4.911600E+00,+140.829E-03,-8.295E-03
+4.914800E+00,-100.377E-03,+927E-06
+4.918000E+00,-261.181E-03,-1.084E-03
+4.921200E+00,-223.492E-03,-280E-06
+4.924400E+00,-100.377E-03,+122E-06
+4.927600E+00,+339.322E-03,-3.068E-03
+4.930800E+00,+100.628E-03,-1.486E-03
+4.934000E+00,-100.377E-03,-2.666E-03
+4.937200E+00,-301.382E-03,-1.460E-03
+4.940400E+00,-102.889E-03,-1.058E-03
+4.943600E+00,+178.518E-03,-2.666E-03
+4.946800E+00,+60.427E-03,-3.094E-03
+4.950000E+00,-220.980E-03,-1.862E-03
+4.953200E+00,-344.095E-03,+1.329E-03
+4.956400E+00,-60.176E-03,-656E-06
+4.959600E+00,+218.719E-03,-2.692E-03
+4.962800E+00,+140.829E-03,-3.496E-03
+4.966000E+00,-180.779E-03,-3.470E-03
+4.969200E+00,-303.894E-03,+122E-06
+4.972400E+00,-102.889E-03,+927E-06
+4.975600E+00,+100.628E-03,-4.677E-03
+4.978800E+00,+178.518E-03,-2.692E-03
+4.982000E+00,-140.578E-03,-3.872E-03
+4.985200E+00,-301.382E-03,+524E-06
+4.988400E+00,-183.291E-03,+927E-06
+4.991600E+00,+98.116E-03,+122E-06
+4.994800E+00,+221.231E-03,-682E-06
+4.998000E+00,-60.176E-03,-2.692E-03
+5.001200E+00,-301.382E-03,+148E-06
+5.004400E+00,-263.693E-03,+122E-06
+5.007600E+00,+60.427E-03,-3.094E-03
+5.010800E+00,+261.432E-03,-2.264E-03
+5.014000E+00,-19.975E-03,-2.290E-03
+5.017200E+00,-261.181E-03,+122E-06
+5.020400E+00,-303.894E-03,+148E-06
+5.023600E+00,+57.915E-03,+122E-06
+5.026800E+00,+181.030E-03,-7.491E-03
+5.030000E+00,+60.427E-03,-3.872E-03
+5.033200E+00,-220.980E-03,-1.058E-03
+5.036400E+00,-341.583E-03,+2.133E-03
+5.039600E+00,-22.487E-03,-1.084E-03
+5.042800E+00,+181.030E-03,-5.481E-03
+5.046000E+00,+140.829E-03,-682E-06
+5.049200E+00,-140.578E-03,-682E-06
+5.052400E+00,-381.784E-03,+3.339E-03
+5.055600E+00,-102.889E-03,-254E-06
+5.058800E+00,+100.628E-03,-2.290E-03
+5.062000E+00,+221.231E-03,-5.883E-03
+5.065200E+00,-140.578E-03,-682E-06
+5.068400E+00,-341.583E-03,+524E-06
+5.071600E+00,-220.980E-03,+2.937E-03
+5.074800E+00,+98.116E-03,-1.460E-03
+5.078000E+00,+218.719E-03,-1.888E-03
+5.081200E+00,-60.176E-03,-1.862E-03
+5.084400E+00,-301.382E-03,-1.460E-03
+5.087600E+00,-261.181E-03,+122E-06
+5.090800E+00,+60.427E-03,-2.264E-03
+5.094000E+00,+258.920E-03,-3.068E-03
+5.097200E+00,-19.975E-03,-2.264E-03
+5.100400E+00,-220.980E-03,-2.666E-03
+5.103600E+00,-341.583E-03,+2.133E-03
+5.106800E+00,+20.226E-03,+148E-06
+5.110000E+00,+221.231E-03,-2.692E-03
+5.113200E+00,+100.628E-03,-3.872E-03
+5.116400E+00,-180.779E-03,-682E-06
+5.119600E+00,-344.095E-03,+148E-06
+5.122800E+00,-62.688E-03,-254E-06
+5.126000E+00,+181.030E-03,-1.888E-03
+5.129200E+00,+181.030E-03,-2.692E-03
+5.132400E+00,-102.889E-03,-2.264E-03
+5.135600E+00,-341.583E-03,+122E-06
+5.138800E+00,-102.889E-03,+927E-06
+5.142000E+00,+138.317E-03,-1.888E-03
+5.145200E+00,+140.829E-03,-682E-06
+5.148400E+00,-100.377E-03,-682E-06
+5.151600E+00,-301.382E-03,-3.068E-03
+5.154800E+00,-143.090E-03,-1.460E-03
+5.158000E+00,+98.116E-03,-280E-06
+5.161200E+00,+221.231E-03,-4.274E-03
+5.164400E+00,-60.176E-03,-3.094E-03
+5.167600E+00,-301.382E-03,-280E-06
+5.170800E+00,-263.693E-03,-656E-06
+5.174000E+00,+60.427E-03,-3.872E-03
+5.177200E+00,+221.231E-03,-2.290E-03
+5.180400E+00,+60.427E-03,-2.692E-03
+5.183600E+00,-261.181E-03,+2.535E-03
+5.186800E+00,-341.583E-03,+122E-06
+5.190000E+00,+17.714E-03,-1.862E-03
+5.193200E+00,+218.719E-03,-3.470E-03
+5.196400E+00,+140.829E-03,-3.470E-03
+5.199600E+00,-180.779E-03,+927E-06
+5.202800E+00,-341.583E-03,+524E-06
+5.206000E+00,-62.688E-03,-656E-06
+5.209200E+00,+181.030E-03,-1.862E-03
+5.212400E+00,+140.829E-03,-1.084E-03
+5.215600E+00,-140.578E-03,+1.731E-03
+5.218800E+00,-344.095E-03,+1.731E-03
+5.222000E+00,-100.377E-03,+122E-06
+5.225200E+00,+138.317E-03,-2.666E-03
+5.228400E+00,+221.231E-03,-2.666E-03
+5.231600E+00,-100.377E-03,-3.068E-03
+5.234800E+00,-381.784E-03,+3.339E-03
+5.238000E+00,-183.291E-03,-1.058E-03
+5.241200E+00,+98.116E-03,-2.264E-03
+5.244400E+00,+261.432E-03,-2.692E-03
+5.247600E+00,-19.975E-03,-4.274E-03
+5.250800E+00,-261.181E-03,-254E-06
+5.254000E+00,-301.382E-03,+1.731E-03
+5.257200E+00,-100.377E-03,-2.264E-03
+5.260400E+00,+261.432E-03,-2.290E-03
+5.263600E+00,-19.975E-03,-2.290E-03
+5.266800E+00,-220.980E-03,-280E-06
+5.270000E+00,-344.095E-03,-1.460E-03
+5.273200E+00,+17.714E-03,+122E-06
+5.276400E+00,+218.719E-03,-2.290E-03
+5.279600E+00,+140.829E-03,-2.692E-03
+5.282800E+00,-220.980E-03,-1.486E-03
+5.286000E+00,-223.492E-03,-656E-06
+5.289200E+00,-100.377E-03,-1.084E-03
+5.292400E+00,+178.518E-03,-1.486E-03
+5.295600E+00,+181.030E-03,-2.290E-03
+5.298800E+00,-140.578E-03,-2.666E-03
+5.302000E+00,-381.784E-03,+2.133E-03
+5.305200E+00,-143.090E-03,+524E-06
+5.308400E+00,+138.317E-03,-3.094E-03
+5.311600E+00,+218.719E-03,-2.692E-03
+5.314800E+00,-100.377E-03,-1.888E-03
+5.318000E+00,-341.583E-03,+927E-06
+5.321200E+00,-183.291E-03,-1.888E-03
+5.324400E+00,+20.226E-03,-254E-06
+5.327600E+00,+299.121E-03,-4.274E-03
+5.330800E+00,-60.176E-03,-2.666E-03
+5.334000E+00,-341.583E-03,-682E-06
+5.337200E+00,-341.583E-03,-1.084E-03
+5.340400E+00,+17.714E-03,-1.058E-03
+5.343600E+00,+258.920E-03,-2.264E-03
+5.346800E+00,+20.226E-03,-2.692E-03
+5.350000E+00,-261.181E-03,+122E-06
+5.353200E+00,-341.583E-03,+524E-06
+5.356400E+00,-19.975E-03,-1.460E-03
+5.359600E+00,+218.719E-03,-3.872E-03
+5.362800E+00,+100.628E-03,-1.460E-03
+5.366000E+00,-180.779E-03,-2.264E-03
+5.369200E+00,-381.784E-03,+2.133E-03
+5.372400E+00,-100.377E-03,+524E-06
+5.375600E+00,+178.518E-03,-3.094E-03
+5.378800E+00,+140.829E-03,-2.692E-03
+5.382000E+00,-140.578E-03,-1.862E-03
+5.385200E+00,-341.583E-03,+1.329E-03
+5.388400E+00,-180.779E-03,+122E-06
+5.391600E+00,+178.518E-03,-5.883E-03
+5.394800E+00,+221.231E-03,-3.094E-03
+5.398000E+00,-100.377E-03,-2.264E-03
+5.401200E+00,-341.583E-03,+122E-06
+5.404400E+00,-223.492E-03,+1.329E-03
+5.407600E+00,+98.116E-03,-1.084E-03
+5.410800E+00,+221.231E-03,-1.486E-03
+5.414000E+00,-19.975E-03,-1.888E-03
+5.417200E+00,-261.181E-03,+122E-06
+5.420400E+00,-303.894E-03,+3.741E-03
+5.423600E+00,+20.226E-03,+524E-06
+5.426800E+00,+181.030E-03,-5.079E-03
+5.430000E+00,+20.226E-03,-3.872E-03
+5.433200E+00,-220.980E-03,-1.486E-03
+5.436400E+00,-344.095E-03,+122E-06
+5.439600E+00,-22.487E-03,-254E-06
+5.442800E+00,+221.231E-03,-1.084E-03
+5.446000E+00,+138.317E-03,-1.888E-03
+5.449200E+00,-180.779E-03,-4.274E-03
+5.452400E+00,-381.784E-03,+122E-06
+5.455600E+00,-102.889E-03,-656E-06
+5.458800E+00,+258.920E-03,-5.481E-03
+5.462000E+00,+181.030E-03,-5.079E-03
+5.465200E+00,-143.090E-03,+524E-06
+5.468400E+00,-341.583E-03,-656E-06
+5.471600E+00,-143.090E-03,+524E-06
+5.474800E+00,+100.628E-03,-2.264E-03
+5.478000E+00,+221.231E-03,-1.486E-03
+5.481200E+00,-60.176E-03,-682E-06
+5.484400E+00,-301.382E-03,-1.460E-03
+5.487600E+00,-261.181E-03,+148E-06
+5.490800E+00,+20.226E-03,-1.862E-03
+5.494000E+00,+221.231E-03,-2.290E-03
+5.497200E+00,-19.975E-03,-1.862E-03
+5.500400E+00,-183.291E-03,-3.068E-03
+5.503600E+00,-301.382E-03,+927E-06
+5.506800E+00,+57.915E-03,-682E-06
+5.510000E+00,+221.231E-03,-3.470E-03
+5.513200E+00,+60.427E-03,-4.274E-03
+5.516400E+00,-180.779E-03,-1.084E-03
+5.519600E+00,-341.583E-03,+1.731E-03
+5.522800E+00,-60.176E-03,+927E-06
+5.526000E+00,+181.030E-03,-1.084E-03
+5.529200E+00,+140.829E-03,-2.666E-03
+5.532400E+00,-180.779E-03,-3.470E-03
+5.535600E+00,-341.583E-03,-682E-06
+5.538800E+00,-102.889E-03,-280E-06
+5.542000E+00,+178.518E-03,-3.470E-03
+5.545200E+00,+181.030E-03,-2.290E-03
+5.548400E+00,-140.578E-03,-3.470E-03
+5.551600E+00,-341.583E-03,+2.133E-03
+5.554800E+00,-183.291E-03,-254E-06
+5.558000E+00,+178.518E-03,-5.481E-03
+5.561200E+00,+221.231E-03,-1.084E-03
+5.564400E+00,-100.377E-03,-2.264E-03
+5.567600E+00,-301.382E-03,-280E-06
+5.570800E+00,-263.693E-03,+952E-06
+5.574000E+00,+60.427E-03,-1.862E-03
+5.577200E+00,+221.231E-03,-1.888E-03
+5.580400E+00,+20.226E-03,-1.888E-03
+5.583600E+00,-301.382E-03,-656E-06
+5.586800E+00,-303.894E-03,-280E-06
+5.590000E+00,+17.714E-03,-1.460E-03
+5.593200E+00,+181.030E-03,-2.666E-03
+5.596400E+00,+100.628E-03,-1.888E-03
+5.599600E+00,-220.980E-03,+524E-06
+5.602800E+00,-341.583E-03,+2.133E-03
+5.606000E+00,+17.714E-03,-254E-06
+5.609200E+00,+218.719E-03,-1.084E-03
+5.612400E+00,+181.030E-03,-3.068E-03
+5.615600E+00,-140.578E-03,-1.486E-03
+5.618800E+00,-344.095E-03,-682E-06
+5.622000E+00,-102.889E-03,-254E-06
+5.625200E+00,+178.518E-03,-2.666E-03
+5.628400E+00,+181.030E-03,-2.666E-03
+5.631600E+00,-140.578E-03,-1.486E-03
+5.634800E+00,-341.583E-03,+927E-06
+5.638000E+00,-183.291E-03,+148E-06
+5.641200E+00,-19.975E-03,+122E-06
+5.644400E+00,-301.382E-03,+952E-06
+5.647600E+00,+1.065452E+00,-8.722E-03
+5.650800E+00,-301.382E-03,-2.290E-03
+5.654000E+00,-1.266206E+00,+3.766E-03
+5.657200E+00,+942.337E-03,-5.104E-03
+5.660400E+00,+341.834E-03,-3.496E-03
+5.663600E+00,-1.105402E+00,+3.364E-03
+5.666800E+00,+500.126E-03,-3.872E-03
+5.670000E+00,+301.633E-03,-2.290E-03
+5.673200E+00,-384.296E-03,-682E-06
+5.676400E+00,+98.116E-03,-3.094E-03
+5.679600E+00,+20.226E-03,-3.470E-03
+5.682800E+00,-180.779E-03,-682E-06
+5.686000E+00,-341.583E-03,+952E-06
+5.689200E+00,-19.975E-03,+122E-06
+5.692400E+00,+258.920E-03,-3.470E-03
+5.695600E+00,+140.829E-03,-3.094E-03
+5.698800E+00,-180.779E-03,+2.937E-03
+5.702000E+00,-341.583E-03,+1.731E-03
+5.705200E+00,-102.889E-03,-1.058E-03
+5.708400E+00,+299.121E-03,-682E-06
+5.711600E+00,+221.231E-03,-2.264E-03
+5.714800E+00,-140.578E-03,-1.084E-03
+5.718000E+00,-341.583E-03,+148E-06
+5.721200E+00,-183.291E-03,+122E-06
+5.724400E+00,+60.427E-03,-1.058E-03
+5.727600E+00,+221.231E-03,-3.898E-03
+5.730800E+00,-60.176E-03,-1.888E-03
+5.734000E+00,-301.382E-03,+550E-06
+5.737200E+00,-303.894E-03,+524E-06
+5.740400E+00,+57.915E-03,-1.084E-03
+5.743600E+00,+258.920E-03,-2.692E-03
+5.746800E+00,+20.226E-03,-2.692E-03
+5.750000E+00,-301.382E-03,+1.329E-03
+5.753200E+00,-341.583E-03,-1.460E-03
+5.756400E+00,+57.915E-03,-1.460E-03
+5.759600E+00,+221.231E-03,-3.068E-03
+5.762800E+00,+100.628E-03,-1.084E-03
+5.766000E+00,-261.181E-03,+1.329E-03
+5.769200E+00,-341.583E-03,+122E-06
+5.772400E+00,-22.487E-03,+550E-06
+5.775600E+00,+218.719E-03,-5.079E-03
+5.778800E+00,+181.030E-03,-3.496E-03
+5.782000E+00,-180.779E-03,-4.274E-03
+5.785200E+00,-381.784E-03,+122E-06
+5.788400E+00,-143.090E-03,-1.460E-03
+5.791600E+00,+100.628E-03,+1.329E-03
+5.794800E+00,+181.030E-03,-1.084E-03
+5.798000E+00,-180.779E-03,-3.094E-03
+5.801200E+00,-341.583E-03,+122E-06
+5.804400E+00,-341.583E-03,+3.339E-03
+5.807600E+00,+98.116E-03,+524E-06
+5.810800E+00,+261.432E-03,-3.898E-03
+5.814000E+00,-60.176E-03,-2.264E-03
+5.817200E+00,-261.181E-03,-1.862E-03
+5.820400E+00,-263.693E-03,-1.058E-03
+5.823600E+00,+57.915E-03,-1.460E-03
+5.826800E+00,+221.231E-03,-2.290E-03
+5.830000E+00,+60.427E-03,-1.460E-03
+5.833200E+00,-261.181E-03,-682E-06
+5.836400E+00,-341.583E-03,-280E-06
+5.839600E+00,+17.714E-03,-1.084E-03
+5.842800E+00,+221.231E-03,-2.290E-03
+5.846000E+00,+60.427E-03,-3.470E-03
+5.849200E+00,-220.980E-03,+524E-06
+5.852400E+00,-341.583E-03,-280E-06
+5.855600E+00,-62.688E-03,-1.460E-03
+5.858800E+00,+181.030E-03,-3.094E-03
+5.862000E+00,+181.030E-03,-1.862E-03
+5.865200E+00,-143.090E-03,-2.264E-03
+5.868400E+00,-341.583E-03,-2.264E-03
+5.871600E+00,-143.090E-03,-1.058E-03
+5.874800E+00,+100.628E-03,-2.666E-03
+5.878000E+00,+218.719E-03,-4.274E-03
+5.881200E+00,-60.176E-03,-1.486E-03
+5.884400E+00,-301.382E-03,+2.535E-03
+5.887600E+00,-183.291E-03,+2.133E-03
+5.890800E+00,+60.427E-03,-2.666E-03
+5.894000E+00,+299.121E-03,-3.872E-03
+5.897200E+00,-60.176E-03,-2.666E-03
+5.900400E+00,-301.382E-03,+550E-06
+5.903600E+00,-263.693E-03,+1.329E-03
+5.906800E+00,+57.915E-03,-2.666E-03
+5.910000E+00,+221.231E-03,-3.068E-03
+5.913200E+00,+60.427E-03,-2.264E-03
+5.916400E+00,-261.181E-03,+1.329E-03
+5.919600E+00,-303.894E-03,-1.460E-03
+5.922800E+00,+17.714E-03,-280E-06
+5.926000E+00,+140.829E-03,+1.329E-03
+5.929200E+00,+140.829E-03,-4.677E-03
+5.932400E+00,-180.779E-03,-1.486E-03
+5.935600E+00,-263.693E-03,-2.666E-03
+5.938800E+00,-100.377E-03,+1.329E-03
+5.942000E+00,+138.317E-03,-3.496E-03
+5.945200E+00,+140.829E-03,-3.470E-03
+5.948400E+00,-140.578E-03,-280E-06
+5.951600E+00,-341.583E-03,-656E-06
+5.954800E+00,-143.090E-03,+148E-06
+5.958000E+00,+100.628E-03,-1.084E-03
+5.961200E+00,+221.231E-03,-1.888E-03
+5.964400E+00,-100.377E-03,-280E-06
+5.967600E+00,-381.784E-03,+3.339E-03
+5.970800E+00,-223.492E-03,-3.068E-03
+5.974000E+00,+98.116E-03,-1.862E-03
+5.977200E+00,+261.432E-03,-3.872E-03
+5.980400E+00,-19.975E-03,-1.084E-03
+5.983600E+00,-261.181E-03,-254E-06
+5.986800E+00,-263.693E-03,+148E-06
+5.990000E+00,+60.427E-03,-1.460E-03
+5.993200E+00,+100.628E-03,+524E-06
+5.996400E+00,+60.427E-03,-3.094E-03
+5.999600E+00,-143.090E-03,+2.133E-03
+6.002800E+00,-341.583E-03,-254E-06
+6.006000E+00,-19.975E-03,-1.486E-03
+6.009200E+00,+218.719E-03,-1.460E-03
+6.012400E+00,+100.628E-03,-2.692E-03
+6.015600E+00,-180.779E-03,-1.888E-03
+6.018800E+00,-381.784E-03,-682E-06
+6.022000E+00,-62.688E-03,-1.486E-03
+6.025200E+00,+178.518E-03,-1.862E-03
+6.028400E+00,+181.030E-03,-1.084E-03
+6.031600E+00,-180.779E-03,-2.290E-03
+6.034800E+00,-341.583E-03,+927E-06
+6.038000E+00,-143.090E-03,+524E-06
+6.041200E+00,+60.427E-03,-2.264E-03
+6.044400E+00,+221.231E-03,-2.692E-03
+6.047600E+00,-62.688E-03,-2.666E-03
+6.050800E+00,-341.583E-03,-254E-06
+6.054000E+00,-183.291E-03,-3.470E-03
+6.057200E+00,+178.518E-03,-3.872E-03
+6.060400E+00,+301.633E-03,-6.687E-03
+6.063600E+00,-19.975E-03,-3.068E-03
+6.066800E+00,-261.181E-03,-656E-06
+6.070000E+00,-263.693E-03,+524E-06
+6.073200E+00,+57.915E-03,+122E-06
+6.076400E+00,+258.920E-03,-1.862E-03
+6.079600E+00,+60.427E-03,-6.687E-03
+6.082800E+00,-180.779E-03,-254E-06
+6.086000E+00,-341.583E-03,+1.329E-03
+6.089200E+00,+17.714E-03,+122E-06
+6.092400E+00,+181.030E-03,-2.290E-03
+6.095600E+00,+100.628E-03,-5.481E-03
+6.098800E+00,-180.779E-03,-1.888E-03
+6.102000E+00,-421.985E-03,+4.143E-03
+6.105200E+00,-102.889E-03,-2.264E-03
+6.108400E+00,+178.518E-03,-1.888E-03
+6.111600E+00,+181.030E-03,-2.290E-03
+6.114800E+00,-180.779E-03,-2.264E-03
+6.118000E+00,-341.583E-03,-280E-06
+6.121200E+00,-180.779E-03,-3.872E-03
+6.124400E+00,+98.116E-03,-1.460E-03
+6.127600E+00,+221.231E-03,-2.290E-03
+6.130800E+00,-100.377E-03,-2.290E-03
+6.134000E+00,-341.583E-03,-682E-06
+6.137200E+00,-223.492E-03,+2.133E-03
+6.140400E+00,+60.427E-03,-254E-06
+6.143600E+00,+221.231E-03,-1.084E-03
+6.146800E+00,-19.975E-03,-2.290E-03
+6.150000E+00,-261.181E-03,+927E-06
+6.153200E+00,-303.894E-03,+122E-06
+6.156400E+00,+17.714E-03,-3.470E-03
+6.159600E+00,+261.432E-03,-4.677E-03
+6.162800E+00,+60.427E-03,-2.290E-03
+6.166000E+00,-223.492E-03,+122E-06
+6.169200E+00,-341.583E-03,+2.133E-03
+6.172400E+00,-62.688E-03,-1.862E-03
+6.175600E+00,+218.719E-03,-3.068E-03
+6.178800E+00,+181.030E-03,-3.068E-03
+6.182000E+00,-180.779E-03,-2.290E-03
+6.185200E+00,-381.784E-03,-656E-06
+6.188400E+00,-62.688E-03,+122E-06
+6.191600E+00,+140.829E-03,-1.460E-03
+6.194800E+00,+181.030E-03,-3.470E-03
+6.198000E+00,-140.578E-03,+927E-06
+6.201200E+00,-341.583E-03,+2.535E-03
+6.204400E+00,-183.291E-03,+524E-06
+6.207600E+00,+138.317E-03,-1.058E-03
+6.210800E+00,+221.231E-03,-3.898E-03
+6.214000E+00,-100.377E-03,-1.888E-03
+6.217200E+00,-301.382E-03,-254E-06
+6.220400E+00,-223.492E-03,+148E-06
+6.223600E+00,+60.427E-03,-1.862E-03
+6.226800E+00,+258.920E-03,-4.274E-03
+6.230000E+00,+20.226E-03,-1.888E-03
+6.233200E+00,-261.181E-03,-1.058E-03
+6.236400E+00,-303.894E-03,-3.470E-03
+6.239600E+00,+57.915E-03,+122E-06
+6.242800E+00,+221.231E-03,-4.677E-03
+6.246000E+00,+60.427E-03,-3.872E-03
+6.249200E+00,-220.980E-03,-682E-06
+6.252400E+00,-341.583E-03,+952E-06
+6.255600E+00,-22.487E-03,-1.058E-03
+6.258800E+00,+299.121E-03,-4.274E-03
+6.262000E+00,+181.030E-03,-3.068E-03
+6.265200E+00,-180.779E-03,-280E-06
+6.268400E+00,-341.583E-03,-254E-06
+6.271600E+00,-102.889E-03,-254E-06
+6.274800E+00,+138.317E-03,-1.084E-03
+6.278000E+00,+221.231E-03,-2.264E-03
+6.281200E+00,-140.578E-03,-3.068E-03
+6.284400E+00,-381.784E-03,-1.058E-03
+6.287600E+00,-220.980E-03,+1.329E-03
+6.290800E+00,+60.427E-03,-1.486E-03
+6.294000E+00,+261.432E-03,-3.094E-03
+6.297200E+00,-100.377E-03,-1.486E-03
+6.300400E+00,-301.382E-03,-1.486E-03
+6.303600E+00,-263.693E-03,+1.329E-03
+6.306800E+00,+20.226E-03,-1.084E-03
+6.310000E+00,+258.920E-03,-1.888E-03
+6.313200E+00,+20.226E-03,-2.290E-03
+6.316400E+00,-261.181E-03,+524E-06
+6.319600E+00,-303.894E-03,+1.731E-03
+6.322800E+00,+17.714E-03,-1.084E-03
+6.326000E+00,+218.719E-03,-3.068E-03
+6.329200E+00,+100.628E-03,-1.084E-03
+6.332400E+00,-180.779E-03,-3.068E-03
+6.335600E+00,-381.784E-03,+1.731E-03
+6.338800E+00,-60.176E-03,-656E-06
+6.342000E+00,+100.628E-03,+2.937E-03
+6.345200E+00,+140.829E-03,-3.898E-03
+6.348400E+00,-180.779E-03,-2.264E-03
+6.351600E+00,-341.583E-03,+1.329E-03
+6.354800E+00,-143.090E-03,-1.460E-03
+6.358000E+00,+138.317E-03,-3.068E-03
+6.361200E+00,+181.030E-03,-3.094E-03
+6.364400E+00,-100.377E-03,-1.084E-03
+6.367600E+00,-301.382E-03,+3.339E-03
+6.370800E+00,-183.291E-03,+1.329E-03
+6.374000E+00,+60.427E-03,-1.486E-03
+6.377200E+00,+221.231E-03,-5.104E-03
+6.380400E+00,-60.176E-03,-5.883E-03
+6.383600E+00,-341.583E-03,-3.068E-03
+6.386800E+00,-223.492E-03,+524E-06
+6.390000E+00,+20.226E-03,-1.084E-03
+6.393200E+00,+299.121E-03,-4.274E-03
+6.396400E+00,+20.226E-03,-2.692E-03
+6.399600E+00,-261.181E-03,-1.084E-03
+6.402800E+00,-223.492E-03,-4.274E-03
+6.406000E+00,+17.714E-03,-280E-06
+6.409200E+00,+140.829E-03,-3.470E-03
+6.412400E+00,+138.317E-03,-1.486E-03
+6.415600E+00,-220.980E-03,-1.084E-03
+6.418800E+00,-341.583E-03,+1.329E-03
+6.422000E+00,-22.487E-03,+927E-06
+6.425200E+00,+181.030E-03,-2.666E-03
+6.428400E+00,+181.030E-03,-3.496E-03
+6.431600E+00,-180.779E-03,+122E-06
+6.434800E+00,-341.583E-03,+122E-06
+6.438000E+00,-381.784E-03,+524E-06
+6.441200E+00,+140.829E-03,-1.888E-03
+6.444400E+00,+20.226E-03,-682E-06
+6.447600E+00,-502.387E-03,+3.339E-03
+6.450800E+00,-464.698E-03,+7.359E-03
+6.454000E+00,+57.915E-03,+4.570E-03
+6.457200E+00,+663.442E-03,+927E-06
+6.460400E+00,+942.337E-03,-7.491E-03
+6.463600E+00,+462.437E-03,-8.295E-03
+6.466800E+00,-341.583E-03,-5.908E-03
+6.470000E+00,-1.183291E+00,-3.068E-03
+6.473200E+00,-987.312E-03,+3.364E-03
+6.476400E+00,-102.889E-03,-254E-06
+6.479600E+00,+741.332E-03,-2.290E-03
+6.482800E+00,+824.246E-03,-7.893E-03
+6.486000E+00,-180.779E-03,-2.692E-03
+6.489200E+00,-944.598E-03,+2.535E-03
+6.492400E+00,-464.698E-03,+1.731E-03
+6.495600E+00,+701.131E-03,-1.486E-03
+6.498800E+00,+703.643E-03,-8.320E-03
+6.502000E+00,-904.397E-03,+1.329E-03
+6.505200E+00,-1.145603E+00,+2.962E-03
+6.508400E+00,+741.332E-03,-6.285E-03
+6.511600E+00,+1.025251E+00,-7.918E-03
+6.514800E+00,-984.799E-03,+3.741E-03
+6.518000E+00,-947.111E-03,+3.766E-03
+6.521200E+00,+942.337E-03,-5.506E-03
+6.524400E+00,+20.226E-03,-682E-06
+6.527600E+00,-585.301E-03,+2.560E-03
+6.530800E+00,+861.935E-03,-8.697E-03
+6.534000E+00,-542.588E-03,+1.329E-03
+6.537200E+00,-987.312E-03,+5.349E-03
+6.540400E+00,+1.143342E+00,-7.089E-03
+6.543600E+00,-502.387E-03,+1.329E-03
+6.546800E+00,-62.688E-03,-2.666E-03
